,1638,1640,1642,1644,1646,1648,1650,1652,1654,1778,1780,1782,1784,1786,1788,1790,1792,1794,1796
1,23.826851,26.553942,29.818016,33.720261,37.869801,41.600666,44.766602,47.730362,50.916389,44.930813,46.422321,47.743198,48.96587,50.074039,50.97047,51.541027,51.696442,51.479004,51.059986
2,36.252453,34.5672,33.053497,31.737232,30.628874,29.72048,28.989714,28.404221,27.937531,4.4417334,5.0001774,5.5143199,5.9885182,6.398634,6.6900034,6.8283854,6.8183146,6.6864719,6.4723592
3,35.692017,33.727741,32.035282,30.619999,29.449017,28.480011,27.675137,27.020304,26.521986,3.4624443,4.0261269,4.6066461,5.1463199,5.5591211,5.7968197,5.8708267,5.8113256,5.6556711,5.4386873
4,27.971579,27.282795,26.670774,26.150343,25.757217,25.53965,25.553308,25.848701,26.435057,6.3739786,6.4683695,6.3634348,6.1177821,5.7954006,5.4574356,5.1407175,4.8442187,4.5284543,4.1205235
5,33.165874,31.792,30.628025,29.645573,28.816753,28.125565,27.568501,27.141119,26.83791,4.2000127,4.7483802,5.2503238,5.632061,5.8402767,5.8685927,5.7659287,5.5842214,5.3590031,5.1000686
6,0.18575436,0.34779906,0.41233158,0.35888875,0.20971063,0.01238618,0,-0.18576917,0,9.0516157,12.596143,16.368059,19.869951,22.829451,25.424429,28.161379,31.466105,35.518162,39.90876
7,36.697491,34.954361,33.459042,32.1945,31.113934,30.168045,29.317976,28.557564,27.910172,3.2481143,3.7355917,4.2488265,4.7480998,5.1636529,5.4529548,5.6177783,5.667027,5.6072216,5.4506087
8,0.25003436,0.2817499,0.34368628,0.43918043,0.53698689,0.58532029,0.55298138,0.43740499,0.28546739,40.03384,43.849918,47.046627,50.042812,53.261135,56.950706,60.949146,64.808395,68.303192,71.464386
9,0,-0.363554,0,-0.406376,0,-0.44130412,0,-0.47480527,0,0,-0.29869831,0,-0.28387451,0,-0.2409382,0,-0.19833322,0,-0.18774194
10,-0.55791581,0,-0.51727724,0,-0.4735055,0,-0.42482558,0,-0.36540917,0,-0.000477353,0,-0.034917329,0,-0.077530004,0,-0.12011805,0,-0.17091084
11,0.095545717,0.065082036,0.030458253,0.016856356,0.037261207,0.09055306,0.15317658,0.1933715,0.20164588,0,-1.52724,0,-1.4025658,0,-1.2196714,0,-1.0215656,0,-0.8355298
12,0,-0.31471771,0,-0.34511605,0,-0.37526882,0,-0.40698564,0,-1.24282,0,-1.1612966,0,-1.0349003,0,-0.90555459,0,-0.79367054,0
13,83.184456,85.625648,87.900414,89.706963,90.887848,91.457191,91.482872,91.03791,90.12896,41.395077,39.696766,37.487026,34.729713,31.61372,28.530968,25.733089,23.234789,20.942572,18.704229
14,89.941322,91.702957,93.134781,93.960426,94.125023,93.785393,93.046616,91.910034,90.283943,36.449162,34.602421,32.341026,29.618572,26.603743,23.658463,21.011961,18.67231,16.557999,14.542006
15,75.355927,78.094604,80.641037,83.080101,85.482491,87.739021,89.599464,90.91507,91.661835,45.299393,44.184559,42.930809,41.462399,39.618614,37.269886,34.383686,31.153423,27.982666,25.125242
16,40.207561,37.903965,35.856476,34.051262,32.488377,31.171291,30.085501,29.199137,28.479343,1.5677371,2.3223634,2.987201,3.5414639,4.0045905,4.4221053,4.8532,5.3531866,5.9001274,6.3788571
17,0.070921727,0.023950392,0,-0.091014884,0,-0.25386414,0,-0.39944115,0,88.064514,91.237114,94.062515,96.530907,98.55468,99.97197,100.58205,100.22482,99.015129,97.271782
18,66.017426,70.628288,75.280205,79.656326,83.604126,87.066841,90.049217,92.575768,94.675751,47.511375,46.691425,45.70105,44.47501,42.988815,41.292183,39.506176,37.739529,36.041668,34.320358
19,0,-0.65067822,0,-0.65744638,0,-0.66709822,0,-0.67764491,0,0.028930046,0.045830611,0.055596627,0.068758704,0.089211106,0.11412308,0.13280554,0.13287193,0.1168542,0.091503397
20,35.352257,38.94989,43.255783,47.886841,52.124863,55.769772,59.14642,62.672215,66.672699,48.359108,49.104477,49.560043,49.734718,49.663494,49.377514,48.897686,48.242649,47.428333,46.463001
21,0.0544286,0.079417512,0.073684797,0.043186311,0.002880685,0,-0.028609401,0,-0.039964784,26.738043,29.835791,32.633766,35.672878,39.365379,43.843822,48.65044,52.989582,56.667686,60.086987
22,90.761566,92.833542,94.705658,96.15966,96.881966,96.838654,96.244179,95.196678,93.625153,37.446823,35.581799,33.589142,31.254675,28.454258,25.341223,22.343164,19.733789,17.51454,15.566143
23,-0.082813568,0,-0.23409414,0,-0.37696946,0,-0.49506885,0,-0.60590327,92.964447,94.57592,95.82473,96.653809,96.973358,96.796158,96.209496,95.17749,93.540611,91.161781
24,51.707371,47.761402,44.256397,41.197029,38.541759,36.214878,34.171085,32.401989,30.902588,0.39163056,0.17773387,0.37568104,0.92603612,1.7024803,2.5367591,3.3059545,3.9628942,4.5024476,4.9581447
25,86.814056,88.723412,90.406487,91.974709,93.345833,94.281822,94.633797,94.371925,93.51236,39.269012,37.638489,36.014038,34.119331,31.78199,29.027851,26.084976,23.331573,20.953192,18.858881
26,32.259903,30.597549,29.159109,27.952499,26.968752,26.193926,25.614082,25.219725,25.005886,4.3975201,5.0677943,5.7568135,6.4580197,7.1109467,7.6311431,7.9302649,7.9846683,7.8566036,7.6160684
27,36.136124,33.898941,31.912292,30.148886,28.601383,27.277269,26.179501,25.303596,24.637617,2.5267916,3.1881094,3.7810874,4.3618546,4.9794016,5.6519489,6.3385601,6.9329886,7.336194,7.4892077
28,-0.11003111,0,-0.092551529,0,-0.087635003,0,-0.083712354,0,-0.071814708,0.13147537,0.13977,0.15140171,0.13455033,0.062559359,0,-0.075049818,0,-0.23922858,0
29,-2.0222156,0,-2.0152726,0,-2.0074105,0,-2.0014966,0,-1.9974719,-1.0853601,0,-1.0283848,0,-0.96820611,0,-0.92104882,0,-0.8966468,0
30,0,-0.26800653,0,-0.23621975,0,-0.21974017,0,-0.22038169,0,0,-0.054926667,0,-0.04136144,0,-0.033396356,0,-0.031307038,0,-0.028784489
31,29.829845,28.400251,27.214479,26.2665,25.532408,24.983824,24.592867,24.336603,24.198586,4.3532629,4.9051433,5.5036526,6.0875001,6.5157928,6.7112274,6.7050815,6.5584221,6.3353181,6.0696287
32,85.333099,88.532021,91.141373,93.175201,94.720001,95.910271,96.838463,97.529785,97.911133,40.322433,38.545029,37.087616,35.842789,34.543118,32.828735,30.534494,27.777157,24.851612,22.146276
33,35.176678,33.23967,31.558811,30.117708,28.900913,27.884501,27.038599,26.349245,25.820415,2.5340178,3.1066983,3.6246026,4.1226807,4.602787,5.04424,5.4088244,5.6680937,5.8135719,5.8534517
34,29.486704,28.263397,27.237499,26.390589,25.7122,25.203312,24.86791,24.70653,24.701925,4.3360252,4.9160357,5.4349799,5.8407431,6.1002774,6.2119136,6.1884179,6.0539503,5.8403082,5.5823789
35,0.76408827,0.54211497,0.28487915,0.041548174,0,-0.13065714,0,-0.18204497,0,32.231777,35.764126,40.074924,44.76292,49.045383,52.7001,56.078754,59.659321,63.834938,68.537453
36,1.1200961,1.1911013,1.2431934,1.2447778,1.1894486,1.0903538,0.97165561,0.85889482,0.7606557,-0.33187959,0,-0.36273491,0,-0.26106969,0.028433368,0.52628589,1.1833335,1.9011329,2.5893924
37,68.313026,73.003098,77.391159,81.367294,84.908691,88.033379,90.751144,93.057831,94.958801,47.714943,46.532452,45.142899,43.562248,41.857563,40.139381,38.475258,36.848236,35.11412,33.024902
38,29.974243,28.862999,27.968636,27.258789,26.704571,26.289484,26.006065,25.840942,25.778629,4.7260213,5.2579203,5.7821655,6.2586956,6.6150131,6.8090696,6.8503108,6.7659688,6.5875649,6.3215599
39,0,-2.3617284,0,-2.2803328,0,-2.2114666,0,-2.1761601,0,0,-1.0177257,0,-1.0278274,0,-1.0767534,0,-1.131914,0,-1.1568809
40,0,-0.61321843,0,-0.3785795,0,-0.19266409,0,-0.024535205,0.18748221,26.969919,26.413343,26.033243,25.830156,25.791714,25.882275,26.051531,26.286846,26.62578,27.1332
41,98.271942,98.292969,97.747665,96.495872,94.375572,91.275772,87.350342,82.966705,78.367989,23.894194,21.043959,18.568678,16.426729,14.485572,12.588459,10.659901,8.7308025,6.8637557,5.1330457
42,0,-0.32073048,0,-0.30232042,0,-0.26803887,0,-0.2201881,0,0.12831151,0.11588372,0.080809951,0.036846515,0,-0.004263909,0,-0.037285231,0,-0.062423445
43,0,-1.1050627,0,-1.061666,0,-1.106262,0,-1.2205189,0,0,-0.29524446,0,-0.24083342,0,-0.25840539,0,-0.3166565,0,-0.37830943
44,27.386183,26.672846,26.076523,25.635021,25.377371,25.32099,25.49357,25.929056,26.634485,5.3641915,4.935709,4.6574159,4.4318395,4.1746125,3.8775291,3.5482047,3.1909602,2.7961142,2.3430555
45,55.147835,58.494987,62.3517,66.727684,71.355751,75.968773,80.358643,84.370087,87.909309,49.435802,48.695339,47.662083,46.495258,45.23875,43.861153,42.286278,40.497372,38.566868,36.626343
46,94.399025,95.778816,96.175316,95.832436,94.926201,93.495132,91.487114,88.831749,85.663857,33.184505,30.658443,27.754578,24.87327,22.279963,19.987371,17.897858,15.854815,13.754565,11.574419
47,43.100143,40.694263,38.538803,36.591045,34.835251,33.278919,31.923,30.754044,29.742201,2.6248007,3.6309092,4.5836349,5.4863925,6.2477198,6.658864,6.61234,6.1870203,5.604208,5.1805997
48,39.724335,37.471424,35.500626,33.795486,32.334072,31.074001,29.957514,28.951727,28.058079,3.6587558,4.5634141,5.3930368,6.0811915,6.4586892,6.4429598,6.1082883,5.6321402,5.2523708,5.0520358
49,0,-0.79631251,0,-0.77351022,0,-0.80601704,0,-0.87753481,0,91.960518,88.884491,85.490036,81.844826,77.934738,73.759438,69.362503,64.859482,60.422329,56.196915
50,26.3316,27.354061,28.413137,29.385767,30.240841,31.039549,31.838963,32.703987,33.866333,2.7568815,2.4193943,1.9541857,1.4144535,0.89254278,0.50172961,0.30946577,0.30802807,0.44710565,0.64457285
51,-0.68113112,0,-0.68401074,0,-0.70993882,0,-0.74437892,0,-0.77557296,-0.3976818,0,-0.43801171,0,-0.42357311,0,-0.36997694,0,-0.30656454,0
52,32.801926,31.446999,30.271059,29.256189,28.382463,27.650749,27.081444,26.69252,26.496939,4.714642,4.8548398,4.7661209,4.5450387,4.357203,4.2646151,4.1803679,4.0346723,3.8240261,3.5589325
53,0.27213418,0.29093328,0.30520272,0.29801551,0.2583504,0.18661469,0.11195359,0.075190119,0.099544853,0.82786679,0.69456857,0.45554534,0.21407214,0.053797051,0.010427582,0.007522379,0,-0.08068949,0
54,0.79422241,0.8132869,0.82004631,0.82074231,0.81763303,0.81134325,0.80735743,0.81254619,0.82635295,-0.35119987,0,-0.54865348,0,-0.65021861,0,-0.63850617,0,-0.54687417,0
55,77.419044,80.601501,83.591026,86.505554,89.429214,92.337318,94.878647,96.502251,97.031647,44.765755,42.90633,40.789871,38.73151,36.823997,34.865719,32.615387,29.913086,26.893742,23.983524
56,-1.3020201,0,-1.2173754,0,-1.0663286,0,-0.87787384,0,-0.70277351,-0.39544451,0,-0.203356,0,-0.005840033,0.14023833,0.18578236,0.1321772,0.015438804,0
57,0.015722796,0,-0.25568527,0,-0.41686064,0,-0.34020591,0.063801542,0.82343811,25.977571,25.302713,24.759092,24.334068,24.046513,23.920324,23.980379,24.256474,24.777592,25.537029
58,-0.35309118,0,-0.22463749,0,-0.1388644,0,-0.1135,0,-0.14965279,-0.4477089,0,-0.54888642,0,-0.64007163,0,-0.67216456,0,-0.62091076,0
59,0,-0.34755874,0,-0.4315142,0,-0.51231945,0,-0.55995923,0,0.13845241,0.19273189,0.25548899,0.32240176,0.38916734,0.44527417,0.47574559,0.46507427,0.40487444,0.31843999
60,0.62901509,0.66216302,0.58878559,0.44141468,0.27327991,0.12445886,0.024124485,0,-0.000805387,0,-0.11828701,0.1081171,0.38270625,0.58072466,0.62806118,0.51646382,0.33578962,0.22111538,0.20712601
61,0,-1.4177136,0,-1.3541614,0,-1.2415402,0,-1.1060582,0,0,-1.4230286,0,-1.5114944,0,-1.5183015,0,-1.4385464,0,-1.3020281
62,1.4699452,1.2573162,1.0631872,0.93975002,0.82945639,0.64166218,0.30273056,0,-0.13371468,41.199772,38.521587,36.169155,34.065079,32.161217,30.456429,28.984573,27.755501,26.7453,25.905205
63,27.304594,26.460352,25.762014,25.252378,24.958559,24.886089,25.047709,25.464878,26.138544,7.2231855,6.7300062,6.3010006,5.9087143,5.511754,5.112021,4.7392569,4.4373531,4.1948013,3.9265437
64,-1.830465,0,-1.7844094,0,-1.7425584,0,-1.7006257,0,-1.6544542,-0.67909837,0,-0.67030394,0,-0.62003922,0,-0.50515604,0,-0.34815264,0
65,0,-0.3690269,0,-0.33136541,0,-0.26483324,0,-0.16582863,0,-0.010239813,0.014164235,0,-0.064452738,0,-0.22584213,0,-0.33994752,0,-0.32779482
66,0,-3.0904155,0,-2.8777823,0,-2.7029326,0,-2.6197228,0,0,-2.4391813,0,-2.3927863,0,-2.2072864,0,-1.909384,0,-1.5760643
67,80.441055,76.779373,72.947479,68.931717,64.730255,60.421185,56.149109,52.028885,48.132427,10.213327,8.1071606,6.0138941,4.0318561,2.3333468,1.054474,0.26878333,0.053127021,0.46851853,1.3812988
68,47.882713,51.080402,54.514744,58.441364,62.739182,67.017052,71.043526,74.782921,78.230133,51.241798,50.858776,50.181751,49.357277,48.465527,47.497101,46.404789,45.124763,43.615246,41.880737
69,28.756899,27.858343,27.098007,26.459785,25.959536,25.620651,25.46899,25.5466,25.907314,6.7171388,6.6337643,6.3721552,6.0581627,5.7355752,5.4316216,5.1698828,4.9467897,4.718698,4.4101171
70,39.492676,37.162399,35.10289,33.260006,31.615082,30.180605,28.9655,27.966278,27.16503,3.0104916,3.9621308,4.8105392,5.6079006,6.3316197,6.8527007,7.0739403,6.9876308,6.6965904,6.4005876
71,30.205658,29.022999,28.031792,27.201164,26.508692,25.952272,25.546822,25.303864,25.230841,7.4585371,7.7445402,7.6222405,7.1805797,6.6853056,6.2919893,5.9622178,5.6404462,5.3048167,4.9432211
72,29.864,28.918257,28.08873,27.348999,26.701406,26.1723,25.796469,25.613739,25.664919,7.0791197,6.9933128,6.5943785,6.119833,5.7139759,5.351707,4.9976521,4.6505761,4.3103189,3.9642801
73,26.170315,26.948643,27.824951,28.724878,29.611879,30.495449,31.403219,32.398537,33.680862,4.3701901,4.0058613,3.5631566,3.0752485,2.6031539,2.2249951,1.9907624,1.9024855,1.9307054,2.0209687
74,0,-0.37059757,0,-0.39473468,0,-0.4918884,0,-0.61564285,0,0.5529384,0.58522481,0.57226884,0.53515697,0.49149823,0.45581266,0.44945934,0.4939211,0.58696997,0.70085549
75,23.634665,26.077869,28.778557,32.074913,36.0896,40.436279,44.428299,47.868359,51.054279,43.599453,44.841354,45.935467,47.044491,48.165569,49.16888,49.839725,50.045029,49.78651,49.199818
76,41.668583,39.237457,37.043102,35.086113,33.378983,31.932617,30.7265,29.711832,28.852749,1.7674174,2.5093222,3.207509,3.8773756,4.5083799,5.0374131,5.4049802,5.5813975,5.5956469,5.5363855
77,-1.7659663,0,-1.760682,0,-1.7341714,0,-1.6963432,0,-1.6634572,-1.3995582,0,-1.2841901,0,-1.1383343,0,-1.0061684,0,-0.94144565,0
78,29.313999,28.290358,27.402863,26.633556,25.996706,25.532122,25.262949,25.1917,25.323769,6.8765402,6.8763194,6.5926142,6.24507,5.9611187,5.705318,5.4320292,5.1304998,4.802331,4.4526834
79,26.115343,27.040676,28.036581,28.940809,29.705801,30.414785,31.173872,32.109966,33.455521,3.5409684,3.2395065,2.829607,2.3286369,1.80471,1.3699592,1.1056502,1.0309806,1.1205801,1.3081387
80,95.67907,95.932693,95.36647,94.334625,92.971817,91.196289,88.809647,85.823364,82.456047,31.33433,28.364126,25.424566,22.762606,20.393829,18.229429,16.124458,13.990883,11.820118,9.607728
81,0,-1.1187872,0,-1.0942938,0,-1.0151643,0,-0.91055632,0,0,-0.29981223,0,-0.27570242,0,-0.30371577,0,-0.3865602,0,-0.49773458
82,32.167614,30.929501,29.838463,28.878567,28.042822,27.333185,26.760571,26.341389,26.097971,7.1323581,7.5181999,7.4990501,7.1571183,6.7413025,6.4008608,6.1086359,5.8258042,5.5478888,5.2707005
83,2.371135,3.3427343,4.2415681,5.1064243,6.0917821,7.4062519,9.2681923,11.814159,15.043592,26.820553,28.023294,29.235901,30.389641,31.473501,32.499096,33.520123,34.762829,36.563831,38.936829
84,91.342445,88.297058,84.787262,80.959862,77.071037,73.176254,69.11264,64.873703,60.70961,16.379999,14.28502,12.130617,9.9278383,7.7736826,5.7254801,3.8639441,2.3082771,1.1295924,0.36654976
85,33.276218,31.602606,30.153048,28.9165,27.889353,27.038166,26.347675,25.78388,25.371778,4.6047449,5.3091941,5.8734446,6.2143397,6.2872891,6.0048132,5.7376242,5.5233164,5.3377466,5.1804452
86,0,-0.005761097,0.004155964,0,-0.081611067,0,-0.19645858,0,-0.28160578,94.528893,92.954735,90.838249,88.118866,84.931602,81.405098,77.809669,74.199257,70.339317,66.221741
87,-0.022833731,0.18409044,0.4130168,0.49201098,0.44841695,0.37091795,0.2779831,0.25375998,0.26682416,60.710415,56.502655,52.402401,48.449574,44.841057,41.61607,38.827965,36.454052,34.360165,32.546551
88,26.65769,25.960196,25.395363,25.008436,24.805149,24.81638,25.029938,25.472439,26.144199,6.8628173,6.4068842,5.9339552,5.4827642,5.0559707,4.6351042,4.2231855,3.8788412,3.5706487,3.2138031
89,69.204041,65.274788,61.209583,57.036644,52.916428,48.901344,45.276821,42.083981,39.375469,4.8006978,3.0107965,1.580614,0.60172087,0.13711572,0.28149426,1.0858757,1.990301,2.7861626,3.5492036
90,94.907379,92.21357,88.679398,84.732361,80.586197,76.574295,72.746353,68.769676,64.609703,17.866159,15.810715,13.78691,11.723446,9.6305523,7.5842671,5.6347084,3.8485959,2.3329206,1.1598699
91,26.050314,26.901367,27.895344,28.837214,29.693199,30.484222,31.209564,32.122665,33.294857,3.6381829,3.2428579,2.757916,2.2082157,1.673878,1.2630678,1.0273511,0.99197876,1.0955939,1.2894449
92,91.975998,88.866035,85.345909,81.603912,77.854454,74.139809,70.194199,66.005074,61.805691,16.190714,14.116271,11.994774,9.8534355,7.8118992,5.9152842,4.1987162,2.7370527,1.5516655,0.69546187
93,24.132252,24.673151,25.494884,26.511255,27.710192,28.86187,29.92312,30.913542,31.833128,4.1693721,3.8697679,3.5735331,3.1982112,2.7151966,2.1658478,1.6380999,1.2606293,1.0771171,1.0956129
94,0,-1.4015303,0,-1.3277577,0,-1.2330914,0,-1.153978,0,0,-0.46408081,0,-0.40682378,0,-0.31873667,0,-0.13496792,0.092049427,0.21290495
95,0,-0.82047427,0,-1.0100948,0,-1.1442699,0,-1.1847922,0,0,-0.20043489,0,-0.24146685,0,-0.33815441,0,-0.47164428,0,-0.5365932
96,-1.2317611,0,-1.1972504,0,-1.1430571,0,-1.1347286,0,-1.1537495,-1.0100945,0,-0.89142436,0,-0.73405063,0,-0.56555545,0,-0.44028959,0
97,36.819477,40.798668,45.14024,49.010654,52.456799,55.965897,59.557404,63.523514,67.722046,49.198196,50.38448,51.3172,51.568138,51.091858,49.940201,48.588501,47.40691,46.378456,45.4851
98,0,-0.60109425,0,-0.64225221,0,-0.69069904,0,-0.74041867,0,0,-0.076564014,0,-0.22475161,0,-0.38890895,0,-0.53255403,0,-0.60862541
99,26.512297,29.14208,31.6112,34.600014,38.150738,42.097946,46.344559,50.021076,53.19603,44.784348,46.393784,47.510899,48.636856,49.782669,50.992096,51.911041,52.184315,51.776657,50.744736
100,76.108673,80.238304,84.07225,87.509727,90.595367,93.393417,95.867996,98.007294,99.341026,45.391327,43.851215,41.992302,39.830463,37.753143,35.888691,34.1082,32.363499,30.099297,27.153622
101,12.812009,16.261738,20.188429,23.783531,26.755472,29.450855,32.061291,35.425701,39.573975,32.711647,35.298866,38.885544,42.37571,45.566593,47.859795,49.381886,50.918285,52.46032,53.98045
102,0,-1.6749943,0,-1.9884057,0,-2.2155948,0,-2.3082266,0,0,-0.38082808,0,-0.28672108,0,-0.28384393,0,-0.29127297,0,-0.28845686
103,-1.2833195,0,-1.5350121,0,-1.8657438,0,-2.2201669,0,-2.5364189,-2.1189849,0,-2.5442429,0,-2.7921059,0,-2.8318875,0,-2.744767,0
104,-1.4933332,0,-1.33436,0,-1.0628568,0,-0.77847624,0,-0.50355858,20.877571,24.57313,27.601646,30.342211,33.01276,36.521816,40.896873,45.73481,50.83548,54.931702
105,-2.0724034,0,-1.8278829,0,-1.5210673,0,-1.1631937,0,-0.95072961,-2.6963801,0,-2.9365373,0,-2.9224985,0,-2.7628286,0,-2.351552,0
106,-1.3469111,0,-1.3176688,0,-1.2148083,0,-0.99670601,0,-0.71460003,-0.11817656,0.042453416,0.33214408,0.70928717,1.1674806,1.5778303,1.6928715,1.5532291,1.1327759,0.66174239
107,-1.7167189,0,-1.6028585,0,-1.3780285,0,-1.0849142,0,-0.79880577,-2.0508885,0,-1.6692345,0,-1.3337642,0,-1.213128,0,-1.2846109,0
108,-0.60403264,0,-0.74638796,0,-0.76239902,0,-0.67960787,0,-0.53041047,6.6321321,7.1834536,8.1124039,9.7594328,12.281388,15.692586,19.766285,23.55382,26.699169,29.37735
109,-2.0052612,0,-1.978238,0,-1.8597857,0,-1.6690416,0,-1.469648,-1.9493052,0,-1.589886,0,-1.2576386,0,-1.1271783,0,-1.1817099,0
110,-0.90872371,0,-1.0894951,0,-1.3116678,0,-1.5243691,0,-1.6790824,-2.5010571,0,-2.694977,0,-2.726686,0,-2.6414669,0,-2.4806023,0
111,-0.39319733,0,-0.23711263,0,-0.089426339,0.044893567,0.15747637,0.26626894,0.45512491,86.458549,90.467484,94.247643,97.830544,101.28948,104.3836,106.83177,107.74554,106.35607,103.39946
112,0,-2.7174823,0,-2.3098924,0,-1.7078848,0,-1.1341724,0,0,-1.9065535,0,-1.5642402,0,-1.1865731,0,-0.80656564,0,-0.43007642
113,0,-2.0252223,0,-1.955038,0,-2.0115108,0,-2.3036437,0,0,-1.5021821,0,-1.987994,0,-2.4790912,0,-2.8342915,0,-2.9770513
114,-1.1622336,0,-1.1361829,0,-1.3471841,0,-1.6211506,0,-1.8949771,-0.46836498,0,-0.30384591,0,-0.16319801,0,-0.083592996,0,-0.044109754,0
115,-1.589959,0,-1.7915081,0,-2.0277288,0,-2.27232,0,-2.512387,0,-0.13843539,0.056795344,0.056322113,0,-0.1336531,0,-0.30772629,0,-0.42527997
116,0,-1.1116143,0,-0.97792274,0,-0.88351405,0,-0.94593424,0,0,-1.9092993,0,-1.6103246,0,-1.43672,0,-1.510934,0,-1.6740056
117,0,-1.3433641,0,-0.96321404,0,-0.64234269,0,-0.38535827,0,0,-2.0782688,0,-1.9480221,0,-1.6605281,0,-1.3022572,0,-1.1196275
118,-1.5897126,0,-1.2972592,0,-0.93121964,0,-0.53501678,0,-0.13241507,29.342487,31.681942,34.90292,38.993515,43.442486,48.113201,51.984688,55.174156,58.575901,62.194805
119,94.256294,91.009552,87.301514,83.007195,78.449432,73.784576,69.42968,65.426102,61.41724,18.276199,16.29425,14.518143,12.938114,11.353134,9.7227755,7.9884024,6.1513314,4.2583342,2.5000558
120,0,-0.65727246,0,-0.58403713,0,-0.43535578,0,-0.27636319,0,0,-1.0716926,0,-0.84932613,0,-0.63793933,0,-0.52281815,0,-0.60434699
121,-1.3661472,0,-1.3019291,0,-1.1439,0,-0.90107262,0,-0.6550827,-1.9425464,0,-1.570412,0,-1.16021,0,-0.85981566,0,-0.74138147,0
122,-0.19813804,0.19222754,0.43526891,0.54250085,0.49342081,0.34701377,0.20784982,0.081146255,0,-0.28031242,0,-0.52618146,0,-0.74303317,0,-0.90024364,0,-0.89006162,0
123,0,-2.2960827,0,-2.3269143,0,-2.178611,0,-1.975664,0,0,-2.166522,0,-1.7901428,0,-1.6068578,0,-1.6377578,0,-1.9599659
124,-2.04388,0,-2.0031607,0,-1.8539153,0,-1.5893064,0,-1.293663,-1.80934,0,-2.0128467,0,-2.0892231,0,-2.0936735,0,-2.000416,0
125,-0.7629537,0,-0.90172887,0,-0.98722404,0,-1.0220318,0,-1.0081593,-1.0197783,0,-0.91513693,0,-0.8250165,0,-0.75637358,0,-0.65351075,0
126,0,-0.022328194,0,-0.26041481,0,-0.65257972,0,-1.0688463,0,0,-1.2371229,0,-1.4930431,0,-1.5889157,0,-1.5484154,0,-1.4022897
127,-0.56181884,0,-0.71411967,0,-0.96737027,0,-1.2973343,0,-1.6106131,-1.2583708,0,-1.6733714,0,-1.9396479,0,-2.003695,0,-1.9073217,0
128,1.8764083,2.8765786,3.3343627,3.2901106,3.0552647,2.7391315,2.7539601,3.0162656,2.9661701,34.507679,31.818542,29.62887,27.72225,26.086262,24.651777,23.459949,22.5315,21.842863,21.335178
129,0.13880374,0,-0.11540343,0,-0.4045437,0,-0.58806026,0,-0.60332215,9.344512,12.192875,15.795957,19.910713,23.5639,26.412678,28.891502,31.217354,34.412277,38.522717
130,-1.5473266,0,-1.5261419,0,-1.4411286,0,-1.3145753,0,-1.1850271,-1.737767,0,-1.4381622,0,-1.0337318,0,-0.63526535,0,-0.39169121,0
131,-1.1887499,0,-1.3890656,0,-1.44929,0,-1.3393644,0,-1.0687593,-1.27106,0,-1.1637031,0,-0.98264211,0,-0.74687833,0,-0.44292569,0
132,0,-0.76169431,0,-0.61722624,0,-0.47480613,0,-0.44096261,0,0,-1.2501392,0,-0.99682307,0,-0.93156523,0,-1.178201,0,-1.5145673
133,20.133858,23.674021,26.466208,28.941978,31.29093,34.412766,38.344456,42.880684,47.850601,39.747814,43.12809,46.267887,48.519115,50.013916,51.438644,52.779602,54.046791,54.847939,54.716419
134,56.331779,51.933468,47.757599,43.823883,40.241886,37.041271,34.286869,31.968508,29.976965,1.0304863,0.31676802,0.054287042,0.29422262,0.95925248,1.7311411,2.4045827,2.9591365,3.3679955,3.8517156
135,0,-0.89230716,0,-0.65724444,0,-0.41483235,0,-0.31469798,0,0,-1.2281036,0,-1.1477474,0,-1.240145,0,-1.56665,0,-1.9404172
136,0.30018276,0.32146779,0.41944572,0.61861783,0.83724993,0.93622023,0.9322843,0.70040977,0.36827937,-0.77454257,0,-0.97232288,0,-1.0182606,0,-0.95277578,0,-0.80781257,0
137,0,-1.7685066,0,-1.4310327,0,-0.97443563,0,-0.64121342,0,0,-2.1042435,0,-2.00225,0,-1.8281437,0,-1.583032,0,-1.3104286
138,0,-1.1761103,0,-0.8852995,0,-0.62076283,0,-0.40691006,0,0,-1.0817188,0,-0.96251059,0,-0.80161005,0,-0.61154932,0,-0.40965587
139,0,-1.290496,0,-1.187274,0,-1.167787,0,-1.2952757,0,0,-1.0175194,0,-1.505362,0,-2.0419443,0,-2.4757714,0,-2.7155635
140,-0.520639,0,-0.40133095,0,-0.4438028,0,-0.60731298,0,-0.79679006,-0.71176898,0,-0.56351501,0,-0.45617133,0,-0.36252362,0,-0.36719301,0
141,32.266834,35.571636,39.636066,44.245529,49.2314,53.416847,56.887459,60.379452,63.978806,49.90358,51.362785,52.528851,53.406464,53.764019,53.350246,52.293999,50.875843,49.361183,48.024853
142,0,-0.24175179,0,-0.12600477,0,-0.056807615,0,-0.16450621,0,0,-0.26526329,0,-0.24536256,0.056698918,0.62701404,1.2433958,1.8297071,2.0042548,1.8163949
143,3.2449961,4.0422935,4.6067996,5.0980763,5.8918548,7.2776947,9.4430161,12.452431,15.970502,23.8116,25.523483,27.029823,28.26404,29.346985,30.293011,31.539541,33.204178,35.924614,39.6521
144,-1.3459687,0,-1.1924086,0,-1.1375589,0,-1.1495348,0,-1.2885942,-0.72937363,0,-0.8435474,0,-1.1176895,0,-1.4174244,0,-1.6500857,0
145,-2.1263349,0,-2.1100128,0,-2.0336571,0,-1.8811035,0,-1.7095357,-1.6783837,0,-1.4282749,0,-1.1875836,0,-1.0822201,0,-1.1144474,0
146,0,-1.9729561,0,-1.945165,0,-1.9741503,0,-2.0810127,0,0,-1.5013753,0,-1.63047,0,-1.8369706,0,-2.0359657,0,-2.1441166
147,0,-0.6682235,0,-0.66862273,0,-0.81725568,0,-1.030735,0,-0.037096981,0.011889875,0,-0.006265208,0,-0.022003429,0.006016031,0.18332604,0.53477579,0.91398609
148,-1.1361663,0,-1.0670403,0,-0.96515,0,-0.84651357,0,-0.72874397,-1.9350774,0,-1.6620014,0,-1.3231601,0,-1.0374326,0,-0.87878937,0
149,0,-0.9976455,0,-0.98602659,0,-0.95574921,0,-0.90920925,0,0.052508533,0.1326232,0.2864067,0.46544001,0.58769399,0.62710595,0.4575581,0.21459098,0.018315293,0
150,0,-1.1948428,0,-1.017305,0,-0.85072744,0,-0.8051548,0,0,-0.90780139,0,-0.7121954,0,-0.65486974,0,-0.79819101,0,-1.0314586
151,0,-1.2469649,0,-1.0729706,0,-0.97513068,0,-0.9385469,0,0,-0.7147429,0,-0.74453348,0,-0.97851956,0,-1.2901157,0,-1.5977143
152,0,-1.2554555,0,-1.122973,0,-1.169884,0,-1.3176081,0,1.412804,1.5083134,1.5481821,1.2135683,0.63621438,0.18317837,0,-0.11283947,0.082679197,0.73637259
153,-1.1854777,0,-1.2051591,0,-1.1710714,0,-1.0562664,0,-0.92332208,-1.0846398,0,-0.72024441,0,-0.375247,0,-0.22621657,0,-0.28002405,0
154,-1.0465719,0,-0.94652331,0,-0.92728132,0,-0.98343235,0,-1.0776303,-1.4422035,0,-1.4352568,0,-1.5057731,0,-1.7040679,0,-1.9574908,0
155,-1.0540429,0,-0.83335876,0,-0.59767544,0,-0.53158122,0,-0.56789982,0.077507108,0,-0.26885828,0,-0.69614971,0,-1.0720702,0,-1.3016469,0
156,-0.89692211,0,-0.99130529,0,-1.1262126,0,-1.2618532,0,-1.3754783,-0.9921509,0,-1.2852371,0,-1.472369,0,-1.5111374,0,-1.4471066,0
157,0,-0.44959259,0,-0.65289074,0,-0.77423704,0,-0.809901,0,0,-1.2146339,0,-1.1689286,0,-1.0900577,0,-0.9849,0,-0.86235905
158,-0.42428905,0,-0.7142418,0,-1.0077541,0,-1.2346004,0,-1.38462,-1.0973713,0,-1.2217846,0,-1.2455367,0,-1.1942199,0,-1.0522109,0
159,0,-1.2468867,0,-1.5642772,0,-1.7958497,0,-1.8957622,0,0.089447469,0,-0.20159362,0.10481188,0.95184058,2.2644386,3.6947699,4.716188,5.4587374,6.0911899
160,-2.2132893,0,-2.1755612,0,-2.0024829,0,-1.7017194,0,-1.421824,-1.99268,0,-2.2125001,0,-2.2712886,0,-2.2287543,0,-2.0088801,0
161,-1.0739714,0,-0.9733398,0,-0.87173647,0,-0.84691471,0,-0.87814879,-0.74631149,0,-0.55643481,0,-0.56892067,0,-0.87098581,0,-1.2755969,0
162,0,-0.015719075,0,-0.19239596,0,-0.43994358,0,-0.64391309,0,0,-0.82807702,0,-1.0211722,0,-1.1598409,0,-1.1207737,0,-0.97140819
163,-1.134653,0,-1.1014286,0,-1.2092378,0,-1.3958902,0,-1.6634138,-0.9088974,0,-1.2857181,0,-1.6709343,0,-1.9640288,0,-2.1184666,0
164,0.95676941,0.2883696,0,-0.14816639,0.079553664,0.88461316,2.2246144,3.7106333,4.7228923,22.516146,22.492022,22.620354,22.97035,23.571581,24.458447,25.625656,26.931955,28.309206,29.563793
165,-0.28932703,0,-0.40730593,0,-0.57504451,0,-0.75807154,0,-0.92986602,-0.62486863,0,-0.91614002,0,-1.1727077,0,-1.3431112,0,-1.4175102,0
166,0,-3.5588236,0,-3.3487973,0,-3.064692,0,-2.7450471,0,0,-2.6490545,0,-2.577991,0,-2.403388,0,-2.1731534,0,-2.0579257
167,-0.82687116,0,-0.91409385,0,-0.94696301,0,-0.88150519,0,-0.75907147,0.65362787,0.65399551,0.55813116,0.36585107,0.18450299,0.12514764,0.047030173,0,-0.13953318,0
168,0,-0.95959485,0,-1.231005,0,-1.4535514,0,-1.6277387,0,0,-0.003185455,0.16537879,0.24351642,0.26829392,0.28021336,0.29678813,0.3963339,0.55016142,0.74765092
169,-0.68678194,0,-0.97992611,0,-1.230552,0,-1.3729799,0,-1.4002399,-1.4790281,0,-1.509002,0,-1.4290328,0,-1.2782588,0,-1.09275,0
170,0,-1.4617393,0,-1.7063005,0,-1.8757252,0,-1.93757,0,0,-1.5931171,0,-1.5287352,0,-1.4233966,0,-1.2955251,0,-1.1567677
171,-1.2007612,0,-1.1528645,0,-1.0357,0,-0.87081981,0,-0.70616919,-1.4831578,0,-1.2435671,0,-0.98443937,0,-0.80973375,0,-0.76017869,0
172,0,-0.070113868,0.10357536,0.2097006,0.27516648,0.31668371,0.34716508,0.39175805,0.45334992,80.726776,85.127037,89.306435,93.191666,96.77774,100.06155,102.8022,104.73863,105.15532,103.51714
173,29.42424,30.45072,31.392843,32.272205,33.52182,35.254189,37.786018,41.106358,43.940281,3.7336009,3.298454,2.979902,2.8268056,2.9272265,3.248286,3.6601126,4.0547485,4.2789459,4.3711052
174,30.847921,34.581802,38.980419,43.91436,48.324474,52.236286,56.114616,60.030754,64.453239,49.349358,50.023663,50.411751,50.541061,50.529518,50.337116,49.940411,49.30975,48.435577,47.310852
175,0,-1.8838857,0,-1.6634749,0,-1.4127328,0,-1.220971,0,0,-0.16516757,0,-0.2444827,0,-0.43171155,0,-0.69264936,0,-0.93290168
176,61.939587,57.155907,52.548935,48.40097,44.716766,41.494053,38.719292,36.266636,34.121017,2.9271526,1.9315886,1.1379728,0.51050341,0.17857823,0.2707631,0.67758387,1.2842032,1.8765236,2.3364286
177,85.445526,89.809174,93.682426,97.04335,99.896172,102.24535,103.9676,104.95853,104.87474,42.319351,40.425964,38.63229,37.071461,35.677773,34.446518,32.914238,30.933647,28.338068,25.006073
178,92.802811,88.853004,84.339447,79.728745,75.194656,70.77903,66.471901,61.829559,56.82888,13.93114,12.179714,10.496485,8.8272591,7.1863418,5.6059408,4.1287498,2.804862,1.7049152,0.88047409
179,0,-0.94156921,0,-1.199976,0,-1.454862,0,-1.7015786,0,106.20509,104.78429,102.68511,100.16928,97.173508,93.72258,89.614243,84.854057,80.05481,75.429955
180,81.071449,85.892914,90.330978,94.380836,98.012688,101.16366,103.74904,105.5946,106.53851,43.796303,41.992474,40.064705,38.173702,36.376175,34.692471,33.143875,31.386162,29.336842,26.821354
181,0,-0.86021656,0,-1.0246577,0,-1.2045677,0,-1.4005108,0,102.95332,100.04302,96.889282,93.500717,89.44931,84.639893,79.646675,74.69326,69.990372,65.550064
182,-1.561546,0,-1.5432687,0,-1.5081999,0,-1.4431952,0,-1.3726095,-1.1428127,0,-1.0427226,0,-1.0223693,0,-1.0852365,0,-1.1615834,0
183,0.80332577,0.70546973,0.52581459,0.31967801,0.090293027,0,-0.17081147,0,-0.37170058,82.211555,86.987709,91.41217,95.48185,99.140121,102.33486,104.96529,106.8084,107.65773,107.12245
184,-0.89261073,0,-0.87607861,0,-0.82932234,0,-0.77018136,0,-0.70660734,-0.34909922,0,-0.24951622,0,-0.18893029,0,-0.15952684,0,-0.1623012,0
185,75.327286,80.190498,84.898827,89.365189,93.560982,97.40258,100.79486,103.5865,105.601,44.806221,43.2085,41.500298,39.693256,37.911152,36.2136,34.595345,33.062588,31.399441,29.540802
186,-1.6898123,0,-1.6345407,0,-1.6827776,0,-1.813483,0,-1.9265095,-1.1151223,0,-1.18575,0,-1.178529,0,-1.106348,0,-1.0029981,0
187,24.983463,23.861557,23.021,22.443689,22.071749,21.873079,21.794621,21.834272,21.972982,3.6149211,4.126236,4.7980399,5.4053016,5.8963823,6.1606793,6.0972104,5.9219179,5.596282,5.2692342
188,0,-1.1643571,0,-1.0855291,0,-0.98762023,0,-0.90530628,0,0,-0.54852104,0,-0.60551465,0,-0.6584667,0,-0.65753978,0,-0.62757319
189,64.088646,68.192719,73.000465,78.333527,83.623199,88.793007,93.591331,97.98793,101.89487,49.033878,47.831432,46.463432,44.894932,43.10775,41.147625,39.034512,37.029465,35.242832,33.630745
190,0,-1.9625856,0,-1.9112201,0,-1.7420973,0,-1.4632483,0,45.085541,41.375481,38.172741,35.46962,33.140022,31.157694,29.379675,27.831196,26.526228,25.481646
191,-0.2665377,0.0751784,0.5700897,1.2794554,2.064363,2.75,3.3339229,3.8177481,4.374804,23.380301,23.766872,24.260927,24.883085,25.690788,26.690241,27.8326,29.10088,30.381006,31.660265
192,82.007698,87.016747,91.597168,95.733948,99.354774,102.40171,104.78285,106.43439,107.32928,43.889,42.216843,40.354355,38.43858,36.541302,34.724857,33.015869,31.09268,28.846373,26.13286
193,3.1164017,3.6406419,4.0520058,4.5637012,5.3668823,6.7313304,8.7949266,11.886544,16.039715,27.663595,28.845009,30.090359,31.345085,32.602631,33.958019,35.470051,37.560001,40.242744,43.047691
194,0,-0.51334268,0,-0.48783338,0,-0.44111338,0,-0.39368972,0,0.39625758,0.35632828,0.32804775,0.32916465,0.41247249,0.49078625,0.46409345,0.35695881,0.18042138,0.060487151
195,-2.1700983,0,-2.5585601,0,-2.7857189,0,-2.8810077,0,-2.7690799,66.848953,62.117081,57.103844,52.217503,47.500721,43.285057,39.582661,36.438904,33.836109,31.602827
196,0,-1.5370331,0,-1.7771574,0,-1.9603326,0,-2.0321085,0,0,-0.40331799,0,-0.3200815,0,-0.20992211,0,-0.21529457,0,-0.28547317
197,82.747139,86.761292,90.536247,94.098267,97.410172,100.39783,102.8194,104.42551,104.66383,43.164452,41.899235,40.492218,38.899479,37.201756,35.406166,33.563641,31.636854,29.254679,26.28442
198,0,-2.13954,0,-2.5624535,0,-2.9077022,0,-3.1807833,0,91.817596,87.889641,83.69252,79.39489,75.095032,70.823502,66.212242,61.25433,56.358337,51.57365
199,24.8235,24.164335,23.66568,23.332584,23.147663,23.11808,23.234491,23.441599,23.7008,3.7262399,4.3744259,5.0660152,5.5684485,5.7764101,5.8560929,5.7587509,5.6021709,5.3647947,5.0611086
200,0,-0.67698169,0,-0.56529987,0,-0.4452877,0,-0.32476428,0,0,-0.21239354,0,-0.020325225,0.10939386,0.17410485,0.13961279,0.089590274,0.093099184,0.14148748
201,0.1834068,0.22234771,0.27156997,0.31588727,0.319451,0.28674656,0.20893086,0.11928377,0.052219223,49.920174,54.08567,58.103291,62.098518,66.854492,72.19014,77.56385,82.855057,87.683372,92.029915
202,57.188572,60.840084,65.037331,69.616722,73.980598,78.073578,81.687027,84.861801,87.674515,53.618839,52.535015,51.436573,50.319309,49.1796,47.903881,46.403458,44.725342,42.84642,40.994873
203,0,-0.5519892,0,-0.44839817,0,-0.29811358,0,-0.12676072,0.015660308,0.084226243,0.26244363,0.40913394,0.40828434,0.27286083,0.12913984,0.002807532,0.032137599,0.18038785,0.29279941
204,0,-0.038949534,0.005166669,0.028530089,0.036970146,0.000335678,0,-0.049067307,0,0,-0.09624628,0,-0.17437851,0,-0.21725255,0,-0.22883417,0,-0.189638
205,0,-0.23145016,0,-0.31700027,0,-0.39918098,0,-0.46742371,0,0,-0.72094947,0,-0.69971764,0,-0.66973066,0,-0.64822888,0,-0.6236735
206,-0.60452759,0,-0.62823385,0,-0.68506706,0,-0.76440924,0,-0.84916401,-0.51456112,0,-0.611202,0,-0.68351996,0,-0.72139704,0,-0.71430755,0
207,90.035934,92.221855,94.113838,95.684982,96.914734,97.55777,97.386108,96.531151,95.201729,43.699188,41.88443,40.136761,38.245602,36.182404,33.575428,30.28755,27.023136,23.838247,21.164686
208,25.856646,25.0725,24.534149,24.174753,23.978052,23.905586,23.957636,24.124165,24.39813,4.3898826,5.13732,5.8459706,6.4454007,6.8084846,6.8199286,6.7387605,6.537992,6.3429317,6.1504116
209,51.122204,55.036602,58.815147,62.572056,66.935539,71.724968,76.279396,80.5196,84.160576,55.201096,54.768715,53.988197,52.973454,51.941917,50.84235,49.636398,48.204258,46.451256,44.531429
210,25.0362,24.299999,23.828043,23.551989,23.446667,23.459129,23.592543,23.84441,24.215069,3.999176,4.6535602,5.3283215,5.9674048,6.4177113,6.5728612,6.6286283,6.5524921,6.4411402,6.2837448
211,50.673161,54.758427,58.683163,62.569775,67.130753,72.181404,77.109848,81.832535,86.048012,57.543262,57.466515,56.732994,55.578682,54.311588,52.987892,51.654701,50.155289,48.38768,46.336399
212,0,-1.5002972,0,-1.662776,0,-1.7127157,0,-1.66826,0,0,-1.2162203,0,-1.1148552,0,-0.99292397,0,-0.84660703,0,-0.68073893
213,-0.60222697,0,-0.55703282,0,-0.48411143,0,-0.37393424,0,-0.260362,-0.41798401,0,-0.23815462,0,-0.087245867,0,-0.038108449,0,-0.07353428,0
214,7.4084301,10.347515,14.122285,17.98455,21.586782,24.801489,27.680828,31.130186,35.238953,32.18528,34.599304,37.986385,41.76862,45.721268,48.826603,51.097424,52.998928,54.556881,55.943707
215,5.359508,7.4378982,10.348845,14.046286,17.863279,21.481819,24.77771,27.784332,31.31237,30.90996,32.473892,34.953663,38.413029,42.249359,46.245823,49.408302,51.764854,53.794357,55.499752
216,0.22694099,0.34977999,0.47504914,0.57214558,0.57404447,0.4998911,0.35117137,0.19804239,0.105555,99.917717,101.8217,102.26903,100.79929,98.179558,95.147133,91.952682,88.771072,85.213516,81.158417
217,0,-0.031996123,0,-0.021159545,0,-0.06751392,0,-0.14015329,0,0,-0.44339141,0,-0.52968931,0,-0.51136202,0,-0.40533316,0,-0.25599909
218,25.199652,24.1607,23.448502,23.023478,22.793858,22.711172,22.7083,22.800915,22.990538,4.8568692,5.6407595,6.58986,7.3416104,7.7515574,7.896668,7.6723142,7.4116464,7.1083155,6.8387561
219,35.61359,32.940983,30.74128,28.826735,27.2054,25.841085,24.75259,23.926498,23.348198,2.138525,2.993861,3.6882637,4.1627364,4.6206136,5.1526713,5.7376127,6.3827,6.8561549,7.0431585
220,-1.2591015,0,-1.0880725,0,-0.94421017,0,-0.83300626,0,-0.78915554,-1.3617535,0,-1.276614,0,-1.1379679,0,-0.97449642,0,-0.88626462,0
221,27.880903,29.320665,30.73424,32.083008,33.364651,34.770504,36.372532,38.64262,41.577644,4.9784184,4.4890103,3.9603641,3.5150065,3.1982532,3.0605783,3.0908935,3.2657313,3.5018001,3.7133839
222,53.759472,57.504841,61.97213,66.989235,72.013603,76.916077,81.300743,85.191978,88.623222,57.515942,56.868755,55.985748,54.902771,53.6576,52.200127,50.482063,48.544075,46.358582,44.185616
223,-0.37465516,0,-0.37567839,0,-0.36125144,0,-0.31969163,0,-0.27170259,0.077079423,0.11643025,0.18103933,0.24639641,0.30498719,0.33937094,0.35509288,0.38606289,0.43192241,0.49588272
224,24.244862,23.435501,22.913,22.649755,22.567457,22.634981,22.797823,23.056757,23.40913,3.5344443,4.0747776,4.80234,5.5006819,6.0811629,6.4643116,6.545794,6.5386572,6.4115596,6.2348652
225,0,-0.52719468,0,-0.69984066,0,-0.73607147,0,-0.6743452,0,7.0419841,9.3601589,12.713288,17.07943,21.599461,25.865452,29.593212,32.819069,36.380177,40.404972
226,-0.38492325,0,-0.12221254,0,-0.01035707,0.00932607,0,-2.0060688,-5,36.456566,40.665424,45.536694,50.903919,55.466843,59.292786,62.994579,66.677605,70.858032,75.366302
227,0,-0.68181986,0,-0.64372027,0,-0.60764027,0,-0.58533156,0,0,-0.78380251,0,-0.78947073,0,-0.79313201,0,-0.79294091,0,-0.78983295
228,-0.36468822,0,-0.35675961,0,-0.39078191,0,-0.46209639,0,-0.5364424,0,-0.083792314,0,-0.15996704,0,-0.13746001,0,-0.039947532,0.037448794,0.090414427
229,26.080978,29.083673,32.63728,36.83292,41.902809,47.65696,52.729401,57.147285,61.402664,49.928143,52.22226,54.199501,55.87109,57.35931,58.470459,58.895206,58.588402,57.620243,56.231831
230,-1.6347619,0,-1.6389163,0,-1.62534,0,-1.6027552,0,-1.5515915,-0.055311225,0.041000728,0.11010853,0.15033995,0.14112258,0.10888458,0.087709606,0.031365957,0,-0.083780244
231,0.074917659,0.13264494,0.19467054,0.22584689,0.22644091,0.18175322,0.1232372,0.085959494,0.028903799,61.267315,65.412437,70.396164,76.022263,81.7033,87.273552,92.211731,96.490334,100.00326,102.73629
232,-0.65610552,0,-0.66052634,0,-0.66666776,0,-0.67529875,0,-0.68421751,-0.41007829,0,-0.43884632,0,-0.44811019,0,-0.43924069,0,-0.41894537,0
233,0,-0.040182736,0,-0.093373068,0,-0.112657,0.013535433,0.27976283,0.74763829,21.884222,21.855906,21.917912,22.070049,22.305687,22.621851,23.013689,23.517876,24.143057,24.908688
234,0,-1.5499657,0,-1.618124,0,-1.6792415,0,-1.7204268,0,0,-1.0709629,0,-1.1206665,0,-1.1235634,0,-1.0958889,0,-1.0507029
235,-0.058187548,0,-0.076560736,0,-0.09392342,0.029434673,0.32372731,0.87694752,1.5884722,21.567476,21.728846,21.958157,22.235445,22.55752,22.92359,23.40062,24.0112,24.815758,25.81624
236,0,-1.0650537,0,-1.0354377,0,-0.98946953,0,-0.9301154,0,0.010978647,0,-0.030429658,0,-0.13507348,0,-0.19359894,0,-0.1843999,0.047616586
237,0,-0.81561881,0,-0.85085422,0,-0.89599341,0,-0.91787273,0,0.19410592,0.21721864,0.18028013,0.1244898,0.088938065,0.030161869,0,-0.079353258,0,-0.17851429
238,-0.76478106,0,-0.72544199,0,-0.68587601,0,-0.65506661,0,-0.63101149,-0.047811538,0,-0.14741336,0,-0.19665878,0,-0.17926371,0.033399597,0.42884919,1.0419035
239,-0.93677509,0,-1.0092438,0,-1.1149257,0,-1.2234178,0,-1.3037817,-0.92172241,0,-0.95648879,0,-0.9669714,0,-0.95551646,0,-0.92289376,0
240,-1.0131787,0,-1.05077,0,-1.0711135,0,-1.0737028,0,-1.0532249,-1.0280086,0,-1.0452222,0,-1.0704223,0,-1.0991482,0,-1.137,0
241,0,-0.39303052,0,-0.41528454,0,-0.44738215,0,-0.43109772,0,2.1537259,2.6572299,3.3026457,4.2253351,5.6756363,7.7762957,10.752594,14.573715,18.512411,22.22558
242,0,-0.97115308,0,-0.89654332,0,-0.82205266,0,-0.78452897,0,0,-0.60095268,0,-0.57861871,0,-0.57866073,0,-0.55316657,0,-0.51056999
243,0.028691046,0.11523691,0.20898737,0.26135996,0.26728663,0.20469536,0.11857589,0.052313052,0.019124137,90.647598,94.881516,98.448853,101.31137,103.4196,104.6868,105.06692,104.36932,102.50357,99.879189
244,18.02174,21.604097,24.816757,27.701788,31.112993,35.137608,40.042351,45.648319,50.625561,42.897221,46.927414,50.098763,52.44553,54.490002,56.256023,57.889675,59.18454,59.843685,59.744541
245,3.6962686,4.5701475,5.9918828,8.1008062,11.144135,15.087143,19.14526,22.95134,26.369619,29.2679,30.487499,31.976673,33.837803,36.625866,40.388969,44.344749,48.250656,51.185268,53.173763
246,0.25731897,0.71206546,1.2960076,1.8626457,2.3956823,2.89394,3.505445,4.3829556,5.7979131,23.518007,24.055799,24.776688,25.684368,26.728495,27.891081,29.097736,30.346861,31.809763,33.587387
247,91.784042,95.055626,97.809914,100.05257,101.6628,102.53928,102.32954,100.78,98.437233,46.203697,43.565983,41.077557,38.864918,36.764561,34.775188,32.310043,29.218594,26.086063,22.95789
248,102.7982,103.53387,103.10823,101.43393,99.096107,96.642189,93.915443,90.87085,87.050125,37.89716,35.818089,33.228664,29.979057,26.744297,23.585636,20.914469,18.778511,16.640713,14.493809
249,0,-0.78752321,0,-0.76236778,0,-0.72216702,0,-0.67212403,0,-0.21841776,0,-0.082946286,0,-0.057509586,0,-0.10761428,0,-0.14100483,0
250,-0.79752535,0,-0.80841488,0,-0.79727674,0,-0.74987841,0,-0.68877727,-0.093414031,0,-0.075916126,0,-0.040562533,0,-0.008656425,0.019402497,0.02831815,0.027316419
251,0,-0.009144608,0.13521442,0.46193984,0.92798293,1.4338931,1.9434772,2.4315939,3.0276015,23.014471,23.226463,23.524628,23.935143,24.54949,25.379602,26.34413,27.41836,28.490679,29.552248
252,102.8325,100.25973,97.244728,93.916702,90.411491,86.327888,81.564789,76.670914,71.848038,29.709421,26.539902,23.387234,20.725077,18.607689,16.523285,14.461553,12.337517,10.157978,7.9655433
253,0,-0.4798291,0,-0.52177858,0,-0.55047727,0,-0.56368828,0,-0.38063192,0,-0.4586474,0,-0.445088,0,-0.35917687,0,-0.2465077,0
254,-1.0977287,0,-1.12491,0,-1.1252923,0,-1.0935594,0,-1.0260081,-0.93625492,0,-0.89946151,0,-0.86356843,0,-0.81842399,0,-0.76395696,0
255,0.013895422,0,-0.018807195,0,-0.10984561,0,-0.20651974,0,-0.29454109,0.03584585,0,-0.008150321,0,-0.018756708,0,-0.00391301,0.057411697,0.14881432,0.26298001
256,35.19957,32.531528,30.276949,28.41007,26.779657,25.405958,24.28829,23.438421,22.8335,0.94455683,1.824128,2.7607484,3.5837185,4.1861086,4.6837277,5.1100016,5.540699,5.9948602,6.4073634
257,0,-0.039542068,0,-0.14315176,0,-0.25126448,0,-0.34762362,0,65.88652,61.571365,57.249039,52.854729,48.596096,44.487152,40.674171,37.17408,34.093777,31.44269
258,22.2575,21.819,21.567434,21.481581,21.515991,21.639364,21.82369,22.05007,22.308846,6.5250201,6.9403634,7.1688552,7.2618408,7.1566052,7.0107894,6.8117304,6.5961127,6.3561125,6.0608621
259,0,-0.52700549,0,-0.47449279,0,-0.41950101,0,-0.38127053,0,0,-0.58408177,0,-0.61375958,0,-0.63486677,0,-0.64212954,0,-0.64098126
260,-1.0519099,0,-1.045332,0,-1.0626514,0,-1.087296,0,-1.1100056,-0.5974142,0,-0.5664407,0,-0.57115716,0,-0.6113106,0,-0.67631328,0
261,-1.4086803,0,-1.3626428,0,-1.312524,0,-1.285733,0,-1.2826486,-1.4554229,0,-1.4666191,0,-1.4676867,0,-1.4645439,0,-1.4581107,0
262,-2.1133771,0,-2.0763557,0,-2.0542297,0,-2.0412719,0,-2.0206723,-2.0496399,0,-2.0732572,0,-2.0800645,0,-2.0762837,0,-2.0584519,0
263,0,-0.64419276,0,-0.55083388,0,-0.44261628,0,-0.35288548,0,-0.25813046,0,-0.22599941,0.035424113,0.48931518,1.1406466,1.8540963,2.4217999,2.9077277,3.386538
264,0,-0.35234496,0,-0.40585619,0,-0.4363074,0,-0.45132428,0,99.63929,98.296455,96.434723,93.955803,90.896606,87.068474,82.498039,77.807831,73.224068,68.811081
265,2.9690599,3.8038287,5.1518965,7.1204839,9.9203634,13.517428,17.234989,20.752119,23.915369,27.729687,28.963089,30.440268,32.249348,34.887653,38.405357,42.153851,45.923737,48.875874,51.04948
266,0.30485868,0.3626774,0.38299954,0.27000874,0.074080177,0,-0.065737009,0,-0.1293049,23.535978,22.57827,21.8675,21.396044,21.117502,21.003222,21.003691,21.091129,21.235559,21.443499
267,0,-0.097483329,0,-0.028654972,0,-0.053396754,0,-0.13667512,0,25.188515,23.959055,22.967617,22.222557,21.697498,21.383837,21.237663,21.233786,21.328695,21.514343
268,-1.1035821,0,-1.0582857,0,-0.95386124,0,-0.83086085,0,-0.74693388,-0.57098043,0,-0.46861637,0,-0.40957776,0,-0.393345,0,-0.4283534,0
269,-0.47520831,0,-0.43462884,0,-0.37133858,0,-0.28037423,0,-0.18459566,0.093174011,0,-0.011247639,0,-0.12419581,0,-0.21124972,0,-0.26400658,0
270,79.150833,74.937836,70.8423,66.909691,62.834759,58.591366,54.353004,50.141392,46.093658,13.3924,11.148685,8.8768749,6.6373816,4.5548563,2.7509289,1.3783492,0.4732393,0.088622347,0.33210585
271,70.77919,75.697754,80.413704,84.829758,88.60128,91.781425,94.455872,96.660889,98.473122,55.328434,53.825733,52.322048,50.696365,48.858665,46.751091,44.301403,41.851486,39.518383,37.287243
272,0.34580702,0.28735808,0.21586643,0.1375806,0.073810413,0.020099999,0,-0.077721611,0,73.8265,78.267967,82.281578,85.899368,89.177765,92.116829,94.73317,96.982681,98.826645,99.87635
273,-0.57043272,0,-0.58564711,0,-0.60750574,0,-0.64483559,0,-0.68531638,-0.40364194,0,-0.41863519,0,-0.46207196,0,-0.51248801,0,-0.56047034,0
274,98.147629,96.416611,94.163216,91.536377,88.302139,84.437073,80.408104,76.392845,72.4189,28.268776,25.019245,22.257208,20.03812,17.865999,15.735642,13.561468,11.341722,9.0834436,6.8463979
275,-0.50619376,0,-0.45615828,0,-0.41352642,0,-0.37757716,0,-0.34121016,3.9526536,5.0128441,6.6435857,8.9536982,12.066155,15.914143,19.780441,23.34606,26.543324,29.436708
276,1.1507872,1.5560548,1.8861829,2.2028179,2.6787286,3.4950383,4.9080219,7.0346603,10.039236,24.167511,24.943907,25.789694,26.691,27.655279,28.693182,30.000095,31.672373,34.198933,37.63747
277,103.14434,101.36071,98.693848,95.735001,92.534569,89.190422,85.332481,80.853989,76.289543,32.045773,29.195957,26.238937,23.179996,20.527563,18.32427,16.144714,13.993809,11.818131,9.6427069
278,0,-0.23224108,0,-0.28078249,0,-0.35675499,0,-0.4544223,0,0,-0.7079677,0,-0.77144486,0,-0.80586684,0,-0.80131412,0,-0.77348894
279,0,-0.55316782,0,-0.57284945,0,-0.56425738,0,-0.54561281,0,0,-0.98169601,0,-0.97833604,0,-0.9419015,0,-0.88467789,0,-0.82733244
280,23.091499,22.730913,22.523857,22.43671,22.419909,22.488129,22.644846,22.914499,23.302597,6.4844398,6.8974457,7.064548,7.0692368,6.8480916,6.6002965,6.3203959,6.0577102,5.8101764,5.5331082
281,0,-0.51062626,0,-0.56220615,0,-0.63089442,0,-0.70042795,0,0,-0.68030447,0,-0.75868189,0,-0.79777449,0,-0.74328625,0,-0.64340156
282,-1.168548,0,-1.2397383,0,-1.304384,0,-1.2893193,0,-1.2404572,-1.239411,0,-1.1903143,0,-1.1048245,0,-0.99954182,0,-0.90869242,0
283,92.604683,89.674522,86.033829,81.573959,76.852753,72.093483,67.605652,63.432064,59.236599,20.8988,18.7276,16.554571,14.377275,12.168677,9.949935,7.7722998,5.7022724,3.845264,2.2870378
284,26.134569,27.253241,28.393364,29.56612,31.045372,32.937084,35.740814,39.486588,43.266182,4.3439717,3.735492,3.2974222,3.0448422,2.9734719,3.0509593,3.1975634,3.3678257,3.50261,3.6087432
285,-0.97940928,0,-0.95979404,0,-0.96024549,0,-0.96974504,0,-1.0111465,-1.0052578,0,-0.98436934,0,-0.97751313,0,-0.97840905,0,-0.9610917,0
286,-0.8155573,0,-0.78875679,0,-0.73200715,0,-0.64025527,0,-0.539258,-1.0822581,0,-0.95942718,0,-0.82690656,0,-0.73576206,0,-0.69232106,0
287,11.02991,14.881857,18.817301,22.494995,25.778217,28.720469,32.148655,36.153534,40.944046,36.726986,40.17437,43.957359,47.857716,50.930664,53.195217,55.134285,56.738823,58.098637,59.01556
288,-0.63306129,0,-0.63356501,0,-0.61511862,0,-0.589261,0,-0.56996763,-0.80053622,0,-0.84361011,0,-0.91688877,0,-1.0010307,0,-1.0597643,0
289,0,-0.70864552,0,-0.69418937,0,-0.66624862,0,-0.6240896,0,0,-0.098995805,0,-0.098596521,0,-0.084048808,0,-0.034238264,0.038318936,0.12832019
290,0,-0.20678838,0,-0.15709931,0,-0.1225004,0,-0.098690517,0,19.417299,23.300394,26.745678,29.806395,33.376198,37.557789,42.61644,48.362919,53.364929,57.65786
291,-0.11680834,0,-0.10262974,0,-0.093726166,0,-0.068935961,0,-0.0312858,43.399609,48.916519,53.737522,57.902885,61.912735,65.89576,70.604027,75.841629,80.94175,85.77887
292,0.15458243,0.1644554,0.1559104,0.12374543,0.085823677,0.067090459,0.02428999,0,-0.066220075,100.38155,100.03474,98.941071,97.252464,95.171669,92.58564,89.512741,85.680199,81.071739,76.402466
293,-1.0873079,0,-1.1393418,0,-1.2059375,0,-1.2128181,0,-1.1919714,-0.90064722,0,-0.86637485,0,-0.81862277,0,-0.75616544,0,-0.68729788,0
294,84.432755,88.950569,92.945374,96.441452,99.364342,101.60164,102.8712,102.87454,101.6676,49.907516,47.986397,45.789772,43.268528,40.826775,38.608974,36.53904,34.646801,32.2925,29.318264
295,-0.72996521,0,-0.76463836,0,-0.85857123,0,-0.97418356,0,-1.0889112,-0.8137688,0,-0.91143,0,-0.98637938,0,-1.024806,0,-1.0217463,0
296,0.10673208,0.056799665,0.013538977,0,-0.080960274,0,-0.17559572,0,-0.21389855,101.53429,103.69081,105.0376,105.34613,104.43428,102.19714,99.237373,96.134377,92.858833,89.436371
297,0,-1.3553783,0,-1.3860472,0,-1.43378,0,-1.4856964,0,0,-0.16205192,0,-0.079018086,0,-0.015982799,0.033299208,0.071364604,0.10583248,0.12062944
298,7.4009676,10.213175,13.932571,17.86747,21.672672,25.076694,28.101028,31.550243,35.524147,32.726845,35.085327,38.397926,42.152088,46.115108,49.254494,51.554214,53.444069,54.929798,56.152573
299,40.808243,46.506721,51.519093,55.869843,60.016861,64.107948,68.996399,74.494682,80.018753,56.28928,57.06778,57.416889,57.255798,56.57193,55.471413,54.175323,52.73457,51.195549,49.500862
300,0,-0.46033537,0,-0.50287849,0,-0.58350992,0,-0.68207824,0,58.386093,54.004353,49.769749,45.81023,42.13784,38.871002,36.01712,33.570286,31.517801,29.739477
301,0,-0.57997507,0,-0.46080947,0,-0.28163674,0,-0.1009268,0.028161358,-1.2218208,0,-1.2238626,0,-1.157052,0,-1.0387011,0,-0.92432672,0
302,-0.68004566,0,-0.71950656,0,-0.7253924,0,-0.69297594,0,-0.61979532,0.074074358,0.23483071,0.38695809,0.46171033,0.42869172,0.29975805,0.1391063,0.033783883,0.016013399,0.063155174
303,-0.63166177,0,-0.5918867,0,-0.52139002,0,-0.43682015,0,-0.36848402,-0.43681493,0,-0.29320371,0,-0.18989208,0,-0.16457509,0,-0.2401311,0
304,0,-0.17001922,0,-0.086157173,0,-0.046430916,0,-0.063565902,0,21.409519,24.49968,27.215826,29.887411,33.049538,37.099731,42.153858,47.704803,52.894596,57.520157
305,-1.5109136,0,-1.3815286,0,-1.1815516,0,-0.95222592,0,-0.7632013,-1.9379886,0,-2.0018666,0,-1.9873152,0,-1.8702548,0,-1.6608441,0
306,-0.19248867,0,-0.34421366,0,-0.43543455,0,-0.457192,0,-0.41009179,0.13213713,0.13824767,0.2023508,0.29173425,0.3635138,0.38383862,0.36740947,0.3603988,0.39874852,0.50050408
307,-0.97689903,0,-1.0139384,0,-1.0223072,0,-1.0241251,0,-1.0415901,0.22509199,0.35866788,0.50169289,0.59218341,0.5848164,0.46512899,0.2870726,0.13716576,0.036579352,0
308,-1.1940743,0,-1.3839228,0,-1.5964754,0,-1.7941256,0,-1.9486594,-1.1963362,0,-1.2292399,0,-1.2091846,0,-1.152864,0,-1.102723,0
309,0,-0.29635456,0,-0.12317625,0,-0.068502992,0,-0.15501083,0,-0.12027014,0.019603692,0.18084919,0.31961286,0.41340771,0.46320835,0.49277639,0.53418553,0.59606802,0.67140383
310,0.081339538,0.81313598,1.8025444,2.8153698,3.7233753,4.5286326,5.377624,6.5108695,8.1483612,23.03517,24.704725,26.870373,29.500605,32.452026,35.497581,38.485641,41.367962,44.135014,46.822208
311,0,-0.73717219,0,-0.60020286,0,-0.6448887,0,-0.85011441,0,0,-0.24175638,0,-0.12627979,0,-0.002410177,0.097347647,0.12107633,0.066937342,0
312,0,-0.68916154,0,-0.60815275,0,-0.48448977,0,-0.35516065,0,27.98807,30.434702,33.44577,37.455177,42.606808,48.368801,53.814381,58.667702,63.291512,68.087608
313,-1.2400188,0,-1.2970732,0,-1.3468128,0,-1.364247,0,-1.3284274,-0.25915414,0,-0.3552126,0,-0.33006576,0,-0.1807951,0.033740513,0.22205073,0.32589018
314,28.792244,31.63916,34.718056,37.835121,40.838558,43.668236,46.381767,49.196259,52.36697,12.043571,11.30587,10.570857,9.7727079,8.8849621,7.9526973,7.0604,6.3185773,5.8025408,5.5255189
315,99.8545,99.707359,99.041519,98.000099,96.740501,95.371262,93.929504,92.33445,90.416641,23.516588,21.902319,20.192696,18.211329,15.983557,13.679646,11.564153,9.7614136,8.2020893,6.7870574
316,-1.3443131,0,-1.4352778,0,-1.5791266,0,-1.7341826,0,-1.8551056,-0.61547083,0,-0.67544055,0,-0.77708817,0,-0.88545811,0,-0.96758038,0
317,98.01944,97.780182,97.0448,95.860176,94.36895,92.762108,91.071938,89.166618,86.871414,24.614241,22.71677,20.584314,18.226528,15.810085,13.615346,11.768083,10.17472,8.7004423,7.2325234
318,-1.2004114,0,-1.1894783,0,-1.294183,0,-1.4656677,0,-1.6337864,-0.98444289,0,-0.97106653,0,-0.84851283,0,-0.65749872,0,-0.44956553,0
319,13.059566,16.593273,20.414715,24.00115,27.097918,29.770334,32.412624,35.610729,39.766464,48.612148,51.525646,54.615772,57.2356,58.925171,59.592194,59.473385,59.02393,58.41943,57.476284
320,1.0917273,1.2429168,1.319887,1.2459754,0.98625749,0.6266588,0.31316635,0.079687886,0,73.539551,79.011787,83.872948,87.77964,90.785439,93.043961,94.718948,95.919312,96.693275,97.03598
321,69.602112,75.042229,80.611549,85.585098,89.572815,92.573891,94.73484,96.252609,97.263741,45.179417,43.031136,41.142979,39.331951,37.430202,35.326508,33.039574,30.72625,28.555471,26.63941
322,0,-0.53159106,0,-0.50622427,0,-0.48007843,0,-0.32289219,0.064741433,21.852001,21.34701,21.133698,21.198639,21.509577,22.019714,22.688641,23.50112,24.524651,25.899481
323,92.938141,94.558685,95.639969,96.24395,96.402786,96.119102,95.354248,94.07196,92.400749,35.217243,32.554195,30.063572,27.943321,26.110161,24.190754,21.928137,19.315664,16.586931,14.153387
324,-0.49228191,0,-0.4804801,0,-0.52834702,0,-0.61070621,0,-0.69148755,0.22080593,0.15136018,0.20629068,0.36914822,0.59547919,0.86993426,1.1900218,1.4988091,1.6978601,1.6886046
325,31.875692,29.872065,28.111076,26.583948,25.312252,24.331316,23.6525,23.259365,23.125034,1.4744272,2.8563249,4.4240942,5.949163,7.3059425,8.5109959,9.6138344,10.659866,11.654,12.546045
326,0.57495934,1.3666981,2.2873378,3.2105184,4.0620413,4.9079223,5.9278908,7.3326769,9.3266954,25.986433,27.696571,29.91223,32.587284,35.52206,38.502399,41.350285,43.964222,46.353813,48.722744
327,-1.0838246,0,-1.096239,0,-1.0779557,0,-1.0174417,0,-0.9230687,0,-0.080717511,0,-0.21771228,0,-0.31777006,0,-0.33447245,0,-0.2543394
328,-0.15173911,0.07069429,0.24149987,0.32268956,0.3247222,0.28903848,0.2689774,0.29793429,0.38283765,58.793697,63.286606,67.959984,73.026215,78.229919,82.990845,86.986603,90.193375,92.668831,94.485931
329,-0.006634798,0,-0.08316572,0,-0.088439807,0,-0.010244159,0.12185048,0.27040762,24.234301,27.525219,30.384554,33.206886,36.585426,40.922344,46.293076,52.138802,57.556282,62.342487
330,-0.84983277,0,-0.85262197,0,-0.78975332,0,-0.67768985,0,-0.5419426,0,-0.39638722,0,-0.25621489,0,-0.12360828,0,-0.02441694,0.048132107,0.11886751
331,18.229572,22.07489,25.604851,28.68664,31.586319,34.856651,38.98764,44.220409,50.096081,53.531872,56.143208,58.079891,59.080551,59.221008,58.856998,58.116547,56.828953,54.87994,52.330574
332,78.186363,74.685577,70.84623,66.712936,62.310837,57.673859,52.90723,48.181614,43.663315,6.9511023,5.5490198,4.2016735,2.8759878,1.624648,0.60239887,0,-0.059894979,0,-0.28818974
333,-0.81674594,0,-0.85763574,0,-0.8134172,0,-0.67127401,0,-0.4582248,57.394505,52.231266,47.250458,42.648258,38.543064,35.005299,32.058399,29.648857,27.658522,25.984707
334,-0.86701459,0,-0.67359728,0,-0.51049936,0,-0.40221849,0,-0.32564384,6.3867102,8.0264454,10.441729,13.572443,17.153601,20.768715,23.975199,26.652939,29.00528,31.465778
335,0.57552934,1.3241795,2.1657329,2.9956298,3.7693923,4.5653081,5.5568094,6.9342813,8.8816757,26.119226,27.88283,30.129589,32.797211,35.70414,38.65976,41.501156,44.130627,46.551891,48.966827
336,-1.7395178,0,-1.8141086,0,-1.8911374,0,-1.9646609,0,-2.0250831,-0.62987846,0,-0.61165357,0,-0.57097471,0,-0.48731428,0,-0.35483527,0
337,97.528763,97.746857,97.494102,96.75029,95.531319,93.989235,92.356445,90.683601,88.82901,26.348492,24.58112,22.692158,20.472988,17.956921,15.370943,13.070568,11.215497,9.6929131,8.3263283
338,0,-0.68609172,0,-0.74114156,0,-0.7315616,0,-0.69425535,0,-0.20051165,0,-0.10579803,0,-0.15553227,0,-0.28773436,0,-0.38772929,0
339,94.642044,93.61232,92.2323,90.667839,88.966591,87.040672,84.749512,81.960106,78.69072,20.775494,18.419071,15.963028,13.705777,11.802531,10.188031,8.7435999,7.3539181,5.9733396,4.6375804
340,0.28947449,0.58770633,0.77032536,0.77952909,0.62900412,0.4222573,0.30028465,0.301328,0.36889672,42.845085,38.796345,35.24424,32.21067,29.648296,27.456442,25.558908,23.923016,22.557503,21.49972
341,58.015808,52.948021,47.984333,43.369514,39.256577,35.720833,32.764179,30.30724,28.214071,0.58204222,0.005239263,0,-0.21740644,0,-0.017498851,0.67514116,1.7842423,3.062403,4.3155642
342,-1.142766,0,-1.088544,0,-1.1522678,0,-1.3208669,0,-1.5525769,-0.97945505,0,-1.2508067,0,-1.46654,0,-1.596101,0,-1.6449758,0
343,1.7813915,1.7958711,1.4918927,0.89779907,0.22426891,0,-0.27147263,0,-0.34623921,20.728725,19.959499,19.417124,19.082663,18.955093,19.055214,19.419373,20.068668,21.013491,22.307369
344,43.712944,39.794609,36.299446,33.248661,30.620611,28.358,26.419794,24.789145,23.459623,-0.14195296,0,-0.00359872,0.68814939,1.894572,3.360064,4.8432775,6.2005658,7.410284,8.5773506
345,0,-0.096635029,0,-0.17060119,0,-0.22584668,0,-0.26162425,0,-0.37831062,0,-0.091774255,0.054649603,0.044453751,0,-0.05434246,0,-0.1098773,0.037440225
346,0,-0.73783296,0,-0.56338376,0,-0.39011008,0,-0.26572874,0,0.091107756,0.040929999,0.028579373,0.090446837,0.21986514,0.36907175,0.47709,0.53190958,0.55978763,0.59366602
347,60.993721,55.938354,50.793575,45.850853,41.324085,37.317402,33.869678,30.96652,28.541496,1.0055032,0.34494856,0,-0.088938102,0,-0.24307704,0,-0.016379148,0.72012931,1.9434263
348,89.7173,86.939079,83.616241,79.866982,75.892265,71.723373,67.232109,62.3536,57.14357,8.8243046,7.6389003,6.4799361,5.2703371,4.0501022,2.8761721,1.7981637,0.87738657,0.18729003,0
349,0,-1.9028926,0,-1.9164821,0,-1.8517143,0,-1.7088393,0,0,-0.41378829,0,-0.44727093,0,-0.58235526,0,-0.736085,0,-0.79257947
350,0.35115406,0.33690348,0.34977466,0.40052959,0.4994497,0.64950848,0.81133401,0.91698301,0.90544856,64.260704,68.861404,73.884819,79.09967,83.907196,87.954933,91.195961,93.699295,95.578835,96.918945
351,-0.54990673,0,-0.55296558,0,-0.61113822,0,-0.67062926,0,-0.68851447,-0.73764354,0,-0.84530526,0,-0.89922321,0,-0.90006739,0,-0.86473721,0
352,-1.6699142,0,-1.4962522,0,-1.3426731,0,-1.292941,0,-1.3752205,-0.58889616,0,-0.55949378,0,-0.66467774,0,-0.85426998,0,-1.0477231,0
353,-0.56331998,0,-0.3995553,0,-0.2801069,0,-0.26507965,0,-0.38284799,-0.23109359,0,-0.42556006,0,-0.55563229,0,-0.61680287,0,-0.63100737,0
354,-0.55955714,0,-0.4964745,0,-0.44322956,0,-0.42468068,0,-0.45035163,0,-0.27816156,0,-0.33167705,0,-0.23620144,0.002912998,0.30236,0.53421646,0.60894984
355,-0.25486359,0,-0.22558068,0,-0.18162712,0,-0.14637564,0,-0.13638932,-0.10049792,0,-0.078445867,0,-0.12367032,0,-0.20029715,0,-0.24680115,0
356,9.3216114,12.53814,16.328714,20.12344,23.52986,26.436182,29.138046,32.22472,36.244492,47.362606,50.051773,53.123528,56.04055,58.269718,59.468342,59.683529,59.298679,58.482502,57.107574
357,-0.17109419,0,-0.18968999,0,-0.14871587,0,-0.017041598,0.18939832,0.41162184,54.537025,59.177715,63.668053,68.414749,73.560707,78.764145,83.375999,87.095711,89.996872,92.221596
358,87.627869,85.216583,82.364967,79.061005,75.42025,71.477196,67.174133,62.492722,57.494099,9.5564747,8.1132278,6.7865725,5.5130463,4.3122015,3.1938908,2.1429071,1.183094,0.39369866,0
359,0,-0.72646147,0,-0.61064857,0,-0.51372778,0,-0.43095234,0,32.232052,35.528751,39.768112,44.938541,50.465961,55.496502,59.89957,64.200806,68.858353,74.046761
360,0,-1.4604831,0,-1.305915,0,-1.1175445,0,-0.94292498,0,0,-1.3539689,0,-1.3987954,0,-1.3895563,0,-1.333304,0,-1.2529821
361,-1.2039455,0,-1.3208268,0,-1.3906293,0,-1.41266,0,-1.387616,-1.3760506,0,-1.3091683,0,-1.2,0,-1.0602551,0,-0.89963669,0
362,-0.88353819,0,-0.91992384,0,-0.89046675,0,-0.80467498,0,-0.68667698,4.3387775,5.0241451,5.6346045,6.5030351,7.9240546,10.1022,13.07042,16.674345,20.481857,23.933849
363,-1.8832206,0,-1.93826,0,-1.7903167,0,-1.4372617,0,-0.93976504,-0.81038332,0,-0.70863104,0,-0.55326158,0,-0.29707617,0.04942818,0.43286771,0.78807783
364,0,-1.5611935,0,-1.3784115,0,-1.1318852,0,-0.8692888,0,0,-1.6194909,0,-1.6591451,0,-1.6310056,0,-1.559404,0,-1.4818
365,21.835423,22.637489,23.682796,25.083223,26.929087,29.249645,31.937105,34.763775,37.555042,15.621591,15.269086,14.680357,13.993388,13.26657,12.533731,11.809645,11.071614,10.260789,9.3621073
366,24.948589,23.709845,22.755344,22.0905,21.701366,21.55908,21.626793,21.877068,22.29295,4.7270875,6.1551094,7.4433208,8.6488237,9.8418903,11.062377,12.2674,13.317113,14.070678,14.431968
367,0,-0.38014799,0,-0.42865643,0,-0.47003782,0,-0.51511508,0,0,-0.22179286,0,-0.26950306,0,-0.17110902,0.068634599,0.3747929,0.63465786,0.76799476
368,0,-1.7946572,0,-1.6616337,0,-1.5321116,0,-1.457392,0,0,-0.53850794,0,-0.39785999,0,-0.42538702,0,-0.58224678,0,-0.7858175
369,0,-0.11154293,0.021106865,0.17484891,0.28921264,0.31027383,0.20594382,0.008581795,0,0.097919196,0.92470121,2.0477057,3.1346331,3.9964988,4.6249642,5.206356,6.05196,7.4389343,9.565444
370,0,-2.5035405,0,-2.4228733,0,-2.2993007,0,-2.1664829,0,0,-1.9616622,0,-2.086601,0,-2.2062085,0,-2.314384,0,-2.4003928
371,0,-1.160766,0,-1.1023363,0,-0.92280716,0,-0.70278943,0,0,-0.93454677,0,-0.61274385,0,-0.36572891,0,-0.27678022,0,-0.38724363
372,28.088066,30.760241,33.54274,36.284,38.922234,41.476078,44.059738,46.937679,50.395844,12.507812,11.892037,11.277671,10.576182,9.7415276,8.8056583,7.8593478,7.0413241,6.455029,6.1307354
373,53.493553,48.445377,43.841198,39.792091,36.334724,33.445251,31.04421,29.014078,27.263685,0.13187808,0,-0.082681239,0.017197728,0.54536587,1.5054297,2.7487869,4.109447,5.4546227,6.7296867
374,0,-0.75538123,0,-0.79288042,0,-0.92677677,0,-1.1193066,0,0,-0.57198656,0,-0.82898676,0,-1.0534725,0,-1.2111264,0,-1.2923857
375,0,-0.60982275,0,-0.44279569,0,-0.24683145,0,-0.092889026,0,0,-0.042588606,0.095235586,0.077424332,0,-0.080935761,0,-0.30438381,0,-0.49418339
376,65.380165,60.676559,55.779514,50.833004,46.048225,41.573944,37.483936,33.839447,30.69253,2.2607057,1.193967,0.30431652,0,-0.27738428,0,-0.43042693,0,-0.04301843,0.9509936
377,-0.351612,0,-0.52050638,0,-0.57215869,0,-0.4857963,0,-0.31923753,93.559006,91.80864,89.855949,87.518631,84.620613,81.163963,77.301277,73.112572,68.584724,63.721001
378,-1.2468206,0,-1.2740682,0,-1.1643857,0,-0.94682229,0,-0.70556426,-0.99743223,0,-0.72684604,0,-0.5276975,0,-0.47495577,0,-0.59645212,0
379,-0.37481102,0,-0.12021551,0.075943306,0.21023643,0.2929996,0.3408376,0.38140914,0.44380179,31.422075,34.708843,38.931866,44.223198,50.037518,55.448162,60.217327,64.768944,69.526192,74.695473
380,0,-0.10112081,0.14122051,0.2799103,0.27865422,0.14230354,0,-0.072581016,0,-0.39694285,0,-0.52960736,0,-0.59714818,0,-0.62051332,0,-0.59599316,0
381,0,-1.7039474,0,-1.61923,0,-1.4267571,0,-1.165696,0,0,-0.77548695,0,-0.54449743,0,-0.4066,0,-0.3893832,0,-0.47499186
382,52.853798,48.029625,43.526142,39.427986,35.797211,32.672749,30.021559,27.748392,25.774979,0.12252906,0,-0.20500007,0,-0.0160954,0.76163268,2.0155606,3.427943,4.7630558,5.9609308
383,0.26385564,0,-0.069863424,0,-0.33098575,0,-0.31781641,0.11710703,1.0259575,20.262716,20.216331,20.356544,20.661772,21.140913,21.80547,22.673201,23.806189,25.306398,27.260942
384,16.715,20.520889,23.893,26.75663,29.461281,32.632694,36.745892,41.957951,47.733761,51.834644,54.696911,56.819393,57.975555,58.264072,58.042,57.466805,56.424225,54.82938,52.725063
385,0,-0.38814875,0,-0.43500572,0,-0.56925058,0,-0.73899758,0,0.48073199,0.71843112,0.91117978,0.9001357,0.6601665,0.28774798,0,-0.059431374,0,-0.1931151
386,0,-1.135919,0,-1.1586,0,-1.0891955,0,-0.97063595,0,0,-0.3517544,0,-0.31078357,0,-0.41873765,0,-0.64721382,0,-0.93124819
387,-0.13044581,0.17933467,0.53223455,0.75661641,0.74148721,0.4632256,0.051183283,0,-0.27932876,74.137535,70.396423,66.306854,61.848763,57.07111,52.13335,47.280201,42.709572,38.551392,34.902302
388,0.30466071,0.49620971,0.60428649,0.61017674,0.5767107,0.60164398,0.69952482,0.82179934,0.91987622,54.639862,58.922516,63.177917,67.86351,73.082603,78.400803,83.05925,86.715271,89.471222,91.545021
389,22.72496,23.680246,24.986586,26.715914,28.909626,31.503616,34.329144,37.221161,40.050163,12.865607,12.290534,11.70331,11.144783,10.605718,10.029606,9.3213177,8.456501,7.5204439,6.637886
390,0,-0.30595398,0,-0.40225428,0,-0.36546177,0,-0.1792675,0.096876204,78.589821,74.974205,71.050652,66.774864,62.130001,57.170841,52.089912,47.181686,42.670742,38.679661
391,-0.38409391,0,-0.37932023,0,-0.38113171,0,-0.38550696,0,-0.37089521,-0.30469429,0,-0.34548718,0,-0.37738433,0,-0.40383673,0,-0.40671042,0
392,25.320961,28.726294,31.630775,34.990799,38.935764,43.831982,49.50008,54.600723,59.135929,53.489994,54.88176,55.515858,55.757,55.537231,54.862034,53.704483,52.107346,50.317429,48.699566
393,34.890465,38.678143,43.309166,48.623478,53.427757,57.732471,61.993343,66.290924,71.231117,56.723106,56.817989,56.488995,55.530598,53.796768,51.608799,49.468178,47.522095,45.866676,44.377136
394,28.227629,30.819851,33.926144,37.647934,42.250359,47.558559,52.380985,56.718628,60.984562,55.964195,56.300156,56.401321,56.225697,55.774303,54.914642,53.517754,51.751659,49.904423,48.08527
395,0,-0.28584543,0,-0.27745965,0,-0.28846312,0,-0.31094456,0,0,-0.16519293,0,-0.10106885,0,-0.059116177,0,-0.03370801,0,-0.04004471
396,-0.33695519,0,-0.31765419,0,-0.28085217,0,-0.23609114,0,-0.18989062,0.012917858,0.2097964,0.62549627,1.2370982,2.0394697,2.9538727,3.8974259,4.9644108,6.2437067,8.0177956
397,0,-0.8627426,0,-0.87888885,0,-0.75297469,0,-0.54893869,0,0,-0.00728731,0.005908569,0.044838749,0.24893169,0.65155375,1.3007897,2.0872149,2.910594,3.8306956
398,0,-0.48407713,0,-0.52051008,0,-0.56180936,0,-0.5911538,0,0,-0.81797749,0,-0.79313982,0,-0.76063114,0,-0.72705078,0,-0.70036215
399,0.027169839,0,-0.064686947,0,-0.19146544,0,-0.34828776,0,-0.52426219,96.245468,97.836517,98.761078,99.03746,98.731468,97.977852,96.947426,95.76799,94.559311,93.052155
400,0,-1.3441285,0,-1.3627198,0,-1.3661363,0,-1.344506,0,0,-1.2498128,0,-1.2586532,0,-1.2368587,0,-1.1769019,0,-1.090909
