##TITLE=Methyl Ethyl Ketone
##JCAMP-DX=4.24
##DATA TYPE=INFRARED SPECTRUM
##XUNITS=cm-1
##YUNITS=Absorbance
##FIRSTX=900
##LASTX=2300
##XYDATA=(X++(Y..Y))
2296 0.11572
2294 0.11812656
2292 0.12053312
2290 0.12293968
2288 0.12534623
2286 0.12776272
2284 0.13016935
2282 0.1325759
2280 0.13498247
2278 0.13738902
2276 0.13979557
2274 0.14221197
2272 0.14460886
2270 0.14700542
2268 0.1494216
2266 0.15188707
2264 0.15424606
2262 0.15643682
2260 0.15905237
2258 0.1622526
2256 0.16389428
2254 0.1633483
2252 0.16858934
2250 0.18200018
2248 0.17388412
2246 0.120525
2244 0.05801747
2242 0.026296899
2240 0.01323128
2238 -0.0025664424
2236 -0.01998852
2234 -0.026479021
2232 0.010298463
2230 0.11304442
2228 0.24283889
2226 0.34851351
2224 0.4018136
2222 0.3897298
2220 0.33307502
2218 0.25869918
2216 0.17791171
2214 0.098596826
2212 0.034299541
2210 -0.0006055932
2208 0.0045293672
2206 0.054353043
2204 0.13387513
2202 0.22229159
2200 0.29956153
2198 0.34850141
2196 0.36214358
2194 0.34004885
2192 0.2953524
2190 0.24400426
2188 0.19617967
2186 0.15865672
2184 0.132126
2182 0.11799997
2180 0.12832092
2178 0.17443977
2176 0.2506083
2174 0.34289473
2172 0.42682707
2170 0.48014501
2168 0.50313401
2166 0.50517142
2164 0.50175732
2162 0.50898695
2160 0.53751671
2158 0.59254849
2156 0.66465098
2154 0.73671812
2152 0.78047985
2150 0.77241558
2148 0.7238701
2146 0.66114825
2144 0.62216294
2142 0.63580966
2140 0.67851663
2138 0.70971745
2136 0.69513088
2134 0.6166653
2132 0.51115721
2130 0.42870611
2128 0.3931928
2126 0.41110229
2124 0.45877796
2122 0.50684661
2120 0.54631764
2118 0.57533556
2116 0.58919513
2114 0.58245498
2112 0.55211419
2110 0.49958357
2108 0.44052684
2106 0.39372084
2104 0.36869028
2102 0.36636913
2100 0.36743462
2098 0.34821203
2096 0.2986657
2094 0.21969323
2092 0.1344848
2090 0.069737762
2088 0.031471021
2086 0.0143225
2084 0.00070114841
2082 -0.026762638
2080 -0.065815084
2078 -0.10590567
2076 -0.13528486
2074 -0.14545634
2072 -0.14199041
2070 -0.13547641
2068 -0.13355285
2066 -0.14096157
2064 -0.15638258
2062 -0.17682323
2060 -0.20236129
2058 -0.2333883
2056 -0.26584971
2054 -0.29263967
2052 -0.30191696
2050 -0.28325605
2048 -0.24028698
2046 -0.18492143
2044 -0.13849699
2042 -0.1223561
2040 -0.14212891
2038 -0.19256659
2036 -0.25213429
2034 -0.29456747
2032 -0.30217195
2030 -0.2679098
2028 -0.21235451
2026 -0.16660465
2024 -0.15568502
2022 -0.1935492
2020 -0.26160884
2018 -0.32905856
2016 -0.37441602
2014 -0.38794822
2012 -0.38818213
2010 -0.40183091
2008 -0.43676838
2006 -0.48658636
2004 -0.52405614
2002 -0.51992887
2000 -0.47492337
1998 -0.40799901
1996 -0.35397857
1994 -0.34722435
1992 -0.39237267
1990 -0.47567874
1988 -0.56693
1986 -0.63432705
1984 -0.66870618
1982 -0.67536932
1980 -0.67286545
1978 -0.68092149
1976 -0.7001366
1974 -0.72152263
1972 -0.73667735
1970 -0.74188495
1968 -0.74948269
1966 -0.77524936
1964 -0.81599128
1962 -0.85747153
1960 -0.88108003
1958 -0.87183607
1956 -0.83677512
1954 -0.79341918
1952 -0.75583547
1950 -0.73377937
1948 -0.72957283
1946 -0.7421025
1944 -0.77114999
1942 -0.81537288
1940 -0.86542958
1938 -0.90864497
1936 -0.93615055
1934 -0.94376045
1932 -0.93743098
1930 -0.92634392
1928 -0.91098446
1926 -0.88677251
1924 -0.84898627
1922 -0.79627103
1920 -0.74048376
1918 -0.69697589
1916 -0.66522044
1914 -0.63657737
1912 -0.60732341
1910 -0.57939357
1908 -0.56425273
1906 -0.57351774
1904 -0.59764558
1902 -0.6157558
1900 -0.61071771
1898 -0.57175088
1896 -0.50184572
1894 -0.41127956
1892 -0.30936325
1890 -0.204478
1888 -0.10640488
1886 -0.025100205
1884 0.032619677
1882 0.063968137
1880 0.075563535
1878 0.08070977
1876 0.098846599
1874 0.14851314
1872 0.23061463
1870 0.32947069
1868 0.40352464
1866 0.40584993
1864 0.32932949
1862 0.19677469
1860 0.051661592
1858 -0.059634492
1856 -0.12205266
1854 -0.14072727
1852 -0.1214502
1850 -0.070712276
1848 -0.0054942388
1846 0.050824322
1844 0.075891659
1842 0.055720963
1840 0.0077073146
1838 -0.033071756
1836 -0.039567001
1834 0.0030547101
1832 0.086966544
1830 0.18918696
1828 0.27967417
1826 0.32972023
1824 0.33013892
1822 0.28811252
1820 0.2264408
1818 0.17367643
1816 0.14522229
1814 0.14412865
1812 0.16081852
1810 0.1820128
1808 0.21027178
1806 0.2573525
1804 0.32546258
1802 0.40701362
1800 0.48483348
1798 0.53931123
1796 0.56472999
1794 0.56393248
1792 0.53290719
1790 0.46660888
1788 0.38204265
1786 0.30881143
1784 0.26178807
1782 0.24285781
1780 0.25003436
1778 0.2817499
1776 0.34368628
1774 0.43918043
1772 0.53698689
1770 0.58532029
1768 0.55298138
1766 0.43740499
1764 0.28546739
1762 0.16000389
1760 0.045609772
1758 -0.11640079
1756 -0.30452341
1754 -0.44006234
1752 -0.4861716
1750 -0.4540031
1748 -0.39383018
1746 -0.37179106
1744 -0.41961423
1742 -0.52863175
1740 -0.63592446
1738 -0.65632719
1736 -0.57039398
1734 -0.42148191
1732 -0.29176745
1730 -0.26586851
1728 -0.33946258
1726 -0.43396842
1724 -0.45443976
1722 -0.31835932
1720 -0.011538118
1718 0.42360482
1716 0.92788661
1714 1.441434
1712 1.925652
1710 2.3782821
1708 2.8867919
1706 3.6060901
1704 4.687912
1702 6.269803
1700 8.4847908
1698 11.394632
1696 14.733286
1694 18.00749
1692 20.904123
1690 23.37019
1688 25.688732
1686 28.352329
1684 31.687122
1682 35.736023
1680 40.03384
1678 43.849918
1676 47.046627
1674 50.042812
1672 53.261135
1670 56.950706
1668 60.949146
1666 64.808395
1664 68.303192
1662 71.464386
1660 74.385193
1658 77.164261
1656 79.867943
1654 82.524452
1652 85.12812
1650 87.618958
1648 89.777985
1646 91.299103
1644 92.099129
1642 92.307411
1640 92.025223
1638 91.270599
1636 89.975388
1634 88.037025
1632 85.502411
1630 82.55304
1628 79.311401
1626 75.812347
1624 72.048965
1622 68.008377
1620 63.768665
1618 59.495667
1616 55.350571
1614 51.46394
1612 47.92767
1610 44.789089
1608 42.022156
1606 39.544651
1604 37.308369
1602 35.311447
1600 33.571907
1598 32.107101
1596 30.884499
1594 29.826923
1592 28.875097
1590 28.007053
1588 27.249426
1586 26.6674
1584 26.303635
1582 26.170139
1580 26.273417
1578 26.613573
1576 27.160372
1574 27.846403
1572 28.587212
1570 29.300852
1568 29.966959
1566 30.628557
1564 31.322111
1562 32.096123
1560 33.16016
1558 34.836487
1556 37.163013
1554 39.827858
1552 42.401695
1550 44.474751
1548 45.985909
1546 47.236179
1544 48.481236
1542 49.815693
1540 51.173279
1538 52.34082
1536 53.064144
1534 53.125412
1532 52.554401
1530 51.633633
1528 50.572109
1526 49.43
1524 48.223873
1522 46.954136
1520 45.610119
1518 44.176903
1516 42.667114
1514 41.108776
1512 39.449162
1510 37.543755
1508 35.25753
1506 32.530136
1504 29.516914
1502 26.58009
1500 23.94096
1498 21.58325
1496 19.395714
1494 17.224733
1492 14.979985
1490 12.66408
1488 10.3099
1486 7.9717369
1484 5.7589083
1482 3.8311708
1480 2.2813344
1478 1.1180792
1476 0.40309101
1474 0.2543087
1472 0.62383461
1470 1.2525048
1468 1.9243089
1466 2.5491278
1464 3.1261988
1462 3.7261853
1460 4.3822665
1458 5.0520358
1456 5.6434197
1454 6.0361438
1452 6.1886005
1450 6.1683006
1448 6.0463095
1446 5.86485
1444 5.6468964
1442 5.3963757
1440 5.1053467
1438 4.7535915
1436 4.3087759
1434 3.7357719
1432 3.0522537
1430 2.3483059
1428 1.7242041
1426 1.2665614
1424 1.0244397
1422 0.99488086
1420 1.1423326
1418 1.4019384
1416 1.7069315
1414 2.004127
1412 2.2835953
1410 2.5899644
1408 2.9654109
1406 3.4274743
1404 3.9659994
1402 4.5381961
1400 5.0935841
1398 5.5836368
1396 5.9759712
1394 6.2631569
1392 6.4525871
1390 6.5621538
1388 6.5936141
1386 6.5236897
1384 6.3370743
1382 6.041255
1380 5.6641569
1378 5.2547083
1376 4.8516741
1374 4.4710712
1372 4.1215858
1370 3.8053136
1368 3.5068772
1366 3.1859844
1364 2.7962646
1362 2.2989426
1360 1.7067806
1358 1.1084085
1356 0.59794086
1354 0.24369627
1352 0.061388008
1350 -0.0049517145
1348 -0.01181436
1346 0.012478007
1344 0.066399083
1342 0.17691088
1340 0.35147059
1338 0.55450648
1336 0.73376
1334 0.83149064
1332 0.82408869
1330 0.746162
1328 0.64693213
1326 0.5756653
1324 0.56697512
1322 0.62968564
1320 0.75807106
1318 0.93196023
1316 1.1289899
1314 1.3289243
1312 1.5141903
1310 1.6709682
1308 1.7901388
1306 1.8696994
1304 1.9119663
1302 1.924021
1300 1.9148883
1298 1.8950976
1296 1.8768713
1294 1.8744054
1292 1.9012461
1290 1.967677
1288 2.0765679
1286 2.218075
1284 2.3737702
1282 2.5169165
1280 2.6294405
1278 2.7139728
1276 2.7862701
1274 2.8759489
1272 3.0093851
1270 3.2008076
1268 3.4577086
1266 3.7804501
1264 4.1670594
1262 4.6135859
1260 5.1143498
1258 5.6616321
1256 6.248723
1254 6.8725958
1252 7.5316911
1250 8.2252045
1248 8.948658
1246 9.6901493
1244 10.432955
1242 11.154517
1240 11.832292
1238 12.443357
1236 12.965614
1234 13.371394
1232 13.63656
1230 13.738366
1228 13.670365
1226 13.457164
1224 13.124005
1222 12.68964
1220 12.166921
1218 11.56343
1216 10.895543
1214 10.193047
1212 9.4886637
1210 8.8023214
1208 8.1481457
1206 7.5281949
1204 6.9376583
1202 6.3630366
1200 5.7868037
1198 5.1890354
1196 4.5597572
1194 3.9118366
1192 3.269243
1190 2.666569
1188 2.132504
1186 1.6767793
1184 1.299948
1182 0.99278837
1180 0.75071335
1178 0.58259779
1176 0.497444
1174 0.49547333
1172 0.56084329
1170 0.64738309
1168 0.7066139
1166 0.70339149
1164 0.62635684
1162 0.51011848
1160 0.39848709
1158 0.32933143
1156 0.32177657
1154 0.35525349
1152 0.39766338
1150 0.41324064
1148 0.37614819
1146 0.28681964
1144 0.16407648
1142 0.053721137
1140 -0.0021267098
1138 0.013956487
1136 0.10546343
1134 0.25670582
1132 0.44628245
1130 0.65188146
1128 0.86685109
1126 1.1210643
1124 1.4387429
1122 1.808032
1120 2.19806
1118 2.5546165
1116 2.8434801
1114 3.092881
1112 3.3412023
1110 3.6146801
1108 3.9269345
1106 4.268405
1104 4.6306634
1102 5.0216417
1100 5.4490933
1098 5.9096313
1096 6.3900857
1094 6.8610973
1092 7.2962899
1090 7.6881652
1088 8.0382347
1086 8.3590298
1084 8.6582203
1082 8.9244986
1080 9.1446791
1078 9.3135805
1076 9.4363909
1074 9.5395947
1072 9.6508188
1070 9.7856359
1068 9.9462357
1066 10.106393
1064 10.23388
1062 10.297933
1060 10.280277
1058 10.191147
1056 10.050571
1054 9.87885
1052 9.6887875
1050 9.4711256
1048 9.2145338
1046 8.9174147
1044 8.5841293
1042 8.2281008
1040 7.8612227
1038 7.4835138
1036 7.0936499
1034 6.6928549
1032 6.2834015
1030 5.8668385
1028 5.4492993
1026 5.0487571
1024 4.680068
1022 4.340549
1020 4.0154819
1018 3.669436
1016 3.2765741
1014 2.8572624
1012 2.4461086
1010 2.0857022
1008 1.812808
1006 1.6381249
1004 1.554854
1002 1.5206409
1000 1.4824172
998 1.3806756
996 1.1719543
994 0.86925936
992 0.51066184
990 0.17004243
988 -0.082535237
986 -0.21851407
984 -0.23330829
982 -0.1667228
980 -0.062931985
978 0.055666387
976 0.17708287
974 0.30561975
972 0.44334441
970 0.57155216
968 0.6699543
966 0.7305125
964 0.75540835
962 0.77089095
960 0.80137938
958 0.84431106
956 0.8835873
954 0.87980551
952 0.79769599
950 0.63700747
948 0.41892084
946 0.20901585
944 0.067980491
942 -2.0189094e-05
940 0.002274856
938 0.09710145
936 0.29031998
934 0.50589859
932 0.65316182
930 0.66290146
928 0.49696463
926 0.21249539
924 -0.10249496
922 -0.33409199
920 -0.39358827
918 -0.31187993
916 -0.15367822
914 0.001471445
912 0.090787068
910 0.1303965
908 0.15514877
906 0.19605049
904 0.27455389
902 0.37834063
900 0.48323578
898 0.55154663
896 0.54220998
