##TITLE=Methyl Ethyl Ketone
##JCAMP-DX=4.24
##DATA TYPE=INFRARED SPECTRUM
##XUNITS=cm-1
##YUNITS=Absorbance
##FIRSTX=900
##LASTX=2300
####NPOINTS=700
##XYDATA=(X++(Y..Y))
2296 0.045786001
2294 0.046738636
2292 0.047691274
2290 0.048643909
2288 0.049596548
2286 0.050549187
2284 0.051501822
2282 0.05245446
2280 0.053406108
2278 0.054358732
2276 0.055311374
2274 0.056264009
2272 0.057216644
2270 0.058169283
2268 0.059121918
2266 0.060074557
2264 0.061026219
2262 0.061978832
2260 0.062931463
2258 0.063884109
2256 0.064836748
2254 0.065789379
2252 0.066742018
2250 0.067694657
2248 0.068646327
2246 0.069598928
2244 0.054104041
2242 0.0020637643
2240 -0.050774399
2238 -0.12040219
2236 -0.19251186
2234 -0.27052844
2232 -0.34723186
2230 -0.38488087
2228 -0.4131434
2226 -0.38135451
2224 -0.34297618
2222 -0.28840464
2220 -0.23809917
2218 -0.20344426
2216 -0.18045886
2214 -0.18103462
2212 -0.191772
2210 -0.21681531
2208 -0.24144498
2206 -0.26446465
2204 -0.28364471
2202 -0.29921868
2200 -0.30595034
2198 -0.30624908
2196 -0.29047287
2194 -0.26569203
2192 -0.21925761
2190 -0.16360573
2188 -0.096800737
2186 -0.026568979
2184 0.0086808
2182 0.035839461
2180 0.014972034
2178 -0.012964278
2176 -0.037916802
2174 -0.060797762
2172 -0.063518256
2170 -0.064519115
2168 -0.066637114
2166 -0.069315687
2164 -0.073660113
2162 -0.08061675
2160 -0.093831532
2158 -0.11627333
2156 -0.15498501
2154 -0.19735408
2152 -0.24258074
2150 -0.27980232
2148 -0.30768207
2146 -0.32092285
2144 -0.32208976
2142 -0.30759078
2140 -0.28307921
2138 -0.25312778
2136 -0.22076143
2134 -0.18532836
2132 -0.14868203
2130 -0.11128117
2128 -0.073666319
2126 -0.056272049
2124 -0.043598887
2122 -0.052824143
2120 -0.065199889
2118 -0.072046891
2116 -0.077139281
2114 -0.074992999
2112 -0.077121913
2110 -0.10277814
2108 -0.13782437
2106 -0.19084394
2104 -0.2384207
2102 -0.26815057
2100 -0.28937659
2098 -0.30078852
2096 -0.31347144
2094 -0.32975167
2092 -0.34145755
2090 -0.34787568
2088 -0.34398457
2086 -0.3321355
2084 -0.30379096
2082 -0.26527053
2080 -0.22777708
2078 -0.1915544
2076 -0.18702573
2074 -0.19561063
2072 -0.2198616
2070 -0.24874176
2068 -0.27717787
2066 -0.30538222
2064 -0.32850775
2062 -0.3488788
2060 -0.35009325
2058 -0.3480747
2056 -0.34897628
2054 -0.3562938
2052 -0.38483691
2050 -0.4136712
2048 -0.43275312
2046 -0.4328182
2044 -0.39978001
2042 -0.35859287
2040 -0.31453007
2038 -0.29493183
2036 -0.30516687
2034 -0.33688951
2032 -0.38418069
2030 -0.42154261
2028 -0.44911286
2026 -0.4505305
2024 -0.43636155
2022 -0.40711525
2020 -0.3713071
2018 -0.35111889
2016 -0.337742
2014 -0.35788742
2012 -0.38890335
2010 -0.43910429
2008 -0.49331087
2006 -0.53429902
2004 -0.56920642
2002 -0.58560878
2000 -0.59622383
1998 -0.60301483
1996 -0.60226429
1994 -0.58216774
1992 -0.54906899
1990 -0.49672136
1988 -0.455136
1986 -0.43954137
1984 -0.45226789
1982 -0.49587977
1980 -0.53706998
1978 -0.56799507
1976 -0.58084029
1974 -0.57926041
1972 -0.58385593
1970 -0.59559953
1968 -0.60035753
1966 -0.59981
1964 -0.57795978
1962 -0.54504639
1960 -0.5265016
1958 -0.51478195
1956 -0.51751113
1954 -0.52488762
1952 -0.52404737
1950 -0.5205074
1948 -0.5205242
1946 -0.52347499
1944 -0.5354538
1942 -0.55155265
1940 -0.56913304
1938 -0.58589143
1936 -0.59857827
1934 -0.60520494
1932 -0.6031822
1930 -0.59950888
1928 -0.59831774
1926 -0.60392648
1924 -0.61820585
1922 -0.63531578
1920 -0.65242553
1918 -0.65565223
1916 -0.64524871
1914 -0.61320871
1912 -0.56707531
1910 -0.5257895
1908 -0.48969206
1906 -0.47005084
1904 -0.45878801
1902 -0.45389956
1900 -0.45121956
1898 -0.46410435
1896 -0.48407713
1894 -0.52051008
1892 -0.56180936
1890 -0.5911538
1888 -0.60839462
1886 -0.59166217
1884 -0.56321764
1882 -0.53726834
1880 -0.52323312
1878 -0.53568202
1876 -0.55831903
1874 -0.58463937
1872 -0.59786212
1870 -0.59062654
1868 -0.56516987
1866 -0.52264833
1864 -0.48444068
1862 -0.4539645
1860 -0.43840039
1858 -0.43524823
1856 -0.44461229
1854 -0.4623999
1852 -0.48119506
1850 -0.50045735
1848 -0.52093524
1846 -0.54310501
1844 -0.58134478
1842 -0.62852782
1840 -0.67624992
1838 -0.72240841
1836 -0.7593497
1834 -0.78918809
1832 -0.80990899
1830 -0.82374918
1828 -0.82576632
1826 -0.81797749
1824 -0.79313982
1822 -0.76063114
1820 -0.72705078
1818 -0.70036215
1816 -0.68859714
1814 -0.68590397
1812 -0.68949568
1810 -0.68574655
1808 -0.66986901
1806 -0.63349402
1804 -0.57916868
1802 -0.52510631
1800 -0.47654748
1798 -0.45447668
1796 -0.452995
1794 -0.4547244
1792 -0.45498678
1790 -0.4136366
1788 -0.34463322
1786 -0.27371949
1784 -0.20406571
1782 -0.16334258
1780 -0.13638271
1778 -0.09905728
1776 -0.058461655
1774 -0.027899506
1772 -0.013684923
1770 -0.029289376
1768 -0.050348897
1766 -0.046469916
1764 -0.011388886
1762 0.059902798
1760 0.035561688
1758 -0.057314996
1756 -0.16144657
1754 -0.28233156
1752 -0.40045744
1750 -0.5093658
1748 -0.58990985
1746 -0.64212394
1744 -0.67016858
1742 -0.67989475
1740 -0.68143624
1738 -0.67999917
1736 -0.67151201
1734 -0.65952033
1732 -0.61223024
1730 -0.53910285
1728 -0.44806409
1726 -0.34442529
1724 -0.24795085
1722 -0.14358033
1720 0.029959574
1718 0.32979244
1716 0.90146196
1714 1.6694555
1712 2.5777137
1710 3.5588419
1708 4.5304399
1706 5.6279297
1704 6.9692116
1702 8.8172436
1700 11.310752
1698 14.613737
1696 18.698143
1694 22.77804
1692 26.505209
1690 29.768593
1688 32.628067
1686 35.960434
1684 39.870811
1682 44.680367
1680 50.22184
1678 55.247292
1676 59.759571
1674 64.123123
1672 68.437019
1670 73.304718
1668 78.527946
1666 83.366043
1664 87.746742
1662 91.330521
1660 94.197792
1658 96.463875
1656 98.152687
1654 99.306046
1652 99.846275
1650 99.723412
1648 98.957504
1646 97.646675
1644 96.070953
1642 94.472099
1640 92.682648
1638 90.626381
1636 87.909882
1634 84.455383
1632 80.558792
1630 76.387604
1628 72.077705
1626 67.680328
1624 62.933239
1622 57.844803
1620 52.801109
1618 47.845276
1616 43.221088
1614 38.963024
1612 35.27478
1610 32.17041
1608 29.602571
1606 27.535772
1604 25.7752
1602 24.326155
1600 23.145132
1598 22.239342
1596 21.574499
1594 21.154955
1592 20.950754
1590 20.964495
1588 21.171297
1586 21.575821
1584 22.158394
1582 22.91387
1580 23.823517
1578 24.978489
1576 26.4046
1574 28.160521
1572 30.253454
1570 32.53413
1568 34.964439
1566 37.346458
1564 39.650383
1562 41.84301
1560 43.949394
1558 46.383923
1556 49.117214
1554 51.686279
1552 53.927357
1550 55.366562
1548 56.026676
1546 56.337643
1544 56.21035
1542 55.600643
1540 54.410042
1538 52.631657
1536 50.570599
1534 48.680538
1532 46.980686
1530 45.457714
1528 43.988407
1526 42.47245
1524 40.791206
1522 38.872952
1520 36.699841
1518 34.255619
1516 31.923256
1514 29.837395
1512 27.89188
1510 26.079378
1508 23.823641
1506 20.977858
1504 18.101097
1502 15.25915
1500 12.912271
1498 11.12404
1496 9.4056568
1494 7.7591476
1492 6.126708
1490 4.5424032
1488 3.0804384
1486 1.8175601
1484 0.83847761
1482 0.18840137
1480 -0.15199319
1478 -0.20087355
1476 0.0086215734
1474 0.56726623
1472 1.4872148
1470 2.5985742
1468 3.816627
1466 4.9850774
1464 5.9922547
1462 6.9144964
1460 7.7647662
1458 8.6243038
1456 9.5229797
1454 10.346986
1452 11.045646
1450 11.482534
1448 11.527886
1446 11.385214
1444 10.9816
1442 10.50214
1440 9.9103088
1438 9.2223377
1436 8.3993044
1434 7.4625063
1432 6.4536924
1430 5.5620694
1428 4.8422298
1426 4.3329382
1424 4.0193777
1422 3.8236346
1420 3.7478564
1418 3.7927856
1416 3.9674342
1414 4.2973051
1412 4.7170115
1410 5.1867151
1408 5.6586227
1406 6.1016374
1404 6.4922371
1402 6.797873
1400 7.0089517
1398 7.0700622
1396 7.0427642
1394 6.8756833
1392 6.6768517
1390 6.4292092
1388 6.1652102
1386 5.8746548
1384 5.5596156
1382 5.2103257
1380 4.8458223
1378 4.4541492
1376 4.0262027
1374 3.5463715
1372 3.0161219
1370 2.4461188
1368 1.8799897
1366 1.3311596
1364 0.81811965
1362 0.35845089
1360 -0.01386717
1358 -0.27836961
1356 -0.376679
1354 -0.34573513
1352 -0.15677144
1350 0.14187825
1348 0.58855867
1346 1.0621657
1344 1.5500641
1342 2.0051262
1340 2.3831601
1338 2.7059255
1336 2.9172144
1334 3.0523717
1332 3.0510108
1330 2.985966
1328 2.8223279
1326 2.6428192
1324 2.4486916
1322 2.2914333
1320 2.1856377
1318 2.1271801
1316 2.11497
1314 2.1100464
1312 2.1055896
1310 2.0793967
1308 2.0367265
1306 1.9823821
1304 1.9249995
1302 1.8762181
1300 1.8419975
1298 1.8400685
1296 1.8783001
1294 1.9997137
1292 2.1879423
1290 2.5048473
1288 2.872504
1286 3.3256364
1284 3.7732384
1282 4.1901875
1280 4.5641017
1278 4.8395882
1276 5.0697284
1274 5.213306
1272 5.3421807
1270 5.4542756
1268 5.6031909
1266 5.813735
1264 6.0823994
1262 6.4287133
1260 6.8268423
1258 7.2891164
1256 7.8144517
1254 8.4049644
1252 9.0585985
1250 9.7612696
1248 10.498829
1246 11.248751
1244 11.984457
1242 12.677579
1240 13.250932
1238 13.71543
1236 13.931529
1234 14.002091
1232 13.74812
1230 13.362761
1228 12.657309
1226 11.866928
1224 10.855326
1222 9.8130388
1220 8.7094707
1218 7.6598291
1216 6.736043
1214 5.9543543
1212 5.4277358
1210 5.0696931
1208 4.9498296
1206 4.919148
1204 4.9718404
1202 4.9638143
1200 4.8662434
1198 4.6075797
1196 4.2068286
1194 3.6889572
1192 3.1108458
1190 2.5586219
1188 2.0468378
1186 1.6561065
1184 1.3295183
1182 1.1044464
1180 0.92302138
1178 0.82577544
1176 0.76749802
1174 0.82043207
1172 0.89496237
1170 1.0279365
1168 1.1549355
1166 1.2624015
1164 1.3536117
1162 1.401752
1160 1.4182332
1158 1.3674275
1156 1.2763257
1154 1.1185712
1152 0.93873829
1150 0.73353815
1148 0.54377836
1146 0.3759982
1144 0.2422713
1142 0.14154312
1140 0.066850528
1138 0.010515638
1136 -0.041476998
1134 -0.095420763
1132 -0.10843486
1130 -0.099446788
1128 -0.057352316
1126 0.0054865181
1124 0.12963177
1122 0.26166874
1120 0.37823799
1118 0.47097188
1116 0.444709
1114 0.41721943
1112 0.39507994
1110 0.40343046
1108 0.50694078
1106 0.60947549
1104 0.70747352
1102 0.78647685
1100 0.83134907
1098 0.89196789
1096 0.98157996
1094 1.1100206
1092 1.292886
1090 1.5310074
1088 1.8300492
1086 2.1851141
1084 2.5799539
1082 2.956439
1080 3.3000281
1078 3.4881442
1076 3.5770872
1074 3.4551537
1072 3.2573721
1070 3.0068998
1068 2.767101
1066 2.6878843
1064 2.648412
1062 2.7490685
1060 2.8462837
1058 2.8771489
1056 2.8839457
1054 2.7865415
1052 2.6898143
1050 2.5958412
1048 2.5120292
1046 2.4538643
1044 2.4100819
1042 2.3969316
1040 2.4251411
1038 2.5122259
1036 2.59234
1034 2.6556172
1032 2.6279087
1030 2.5126355
1028 2.3219168
1026 2.0771677
1024 1.8077624
1022 1.5280681
1020 1.274624
1018 1.036062
1016 0.84781832
1014 0.6729067
1012 0.49643427
1010 0.31890136
1008 0.13245183
1006 -0.052670941
1004 -0.21354203
1002 -0.37944248
1000 -0.58135188
998 -0.79496813
996 -1.0581143
994 -1.2937701
992 -1.441208
990 -1.5343722
988 -1.5045046
986 -1.4793199
984 -1.4642286
982 -1.4766101
980 -1.522174
978 -1.511476
976 -1.4385715
974 -1.2912838
972 -1.0880001
970 -0.94090551
968 -0.83320254
966 -0.82652801
964 -0.86393195
962 -0.87151098
960 -0.86515206
958 -0.76906675
956 -0.65210462
954 -0.49776956
952 -0.34026158
950 -0.21510229
948 -0.095094487
946 -0.031342179
944 0.0036188588
942 0.10959405
940 0.23519826
938 0.44325882
936 0.62902772
934 0.74820834
932 0.81744653
930 0.78104919
928 0.770895
926 0.80392593
924 0.90037
922 1.0730965
920 1.2176331
918 1.3342896
916 1.3388371
914 1.2632204
912 1.0855476
910 0.85406327
908 0.6497727
906 0.45663893
904 0.41757622
902 0.41890889
900 0.47692186
898 0.54404593
896 0.66005999
