##TITLE=octarelline 6 front
##JCAMP-DX=4.24
##DATA TYPE=INFRARED SPECTRUM
##DATE=31/1/2005
##TIME=16:57:6
##SAMPLING PROCEDURE=film
##ORIGIN=Vincent
##DATA PROCESSING=no operation
##XUNITS=1/CM
##YUNITS=ABSORBANCE
##RESOLUTION=2
##FIRSTX=4000.283
##LASTX=800.31372
##DELTAX=-0.64282227
##MAXY=0.23852657
##MINY=-0.0021099057
##XFACTOR=1
##YFACTOR=2.2214518e-010
##NPOINTS=4979
##FIRSTY=0.0060672737
##XYDATA=(X++(Y..Y))
4000.28+27312201+27663656+27658456+27299318+26621756+25731412+24964930+24739160
3995.14+25071982+25471086+25504024+25265798+25071982+24939316+24680748+24361562
3990.00+24304574+24659508+25172310+25437792+25306050+25014028+24888924+24957258
3984.86+25000338+24923030+24811266+24676970+24469762+24287704+24207948+24034170
3979.71+23670034+23539354+24091740+25011902+25522558+25383254+25062658+24969060
3974.57+25019104+24991602+24882786+24779992+24667766+24512474+24403566+24470232
3969.43+24716620+25073750+25546878+26098650+26413396+26108216+25301212+24649826
3964.28+24630240+24986882+25140442+24990070+25002226+25510398+26237296+26665816
3959.14+26632974+26296466+25793992+25276540+25035156+25130524+25132886+24718864
3954.00+24270712+24378316+24980038+25470848+25435434+24915594+24219862+23737148
3948.86+23623212+23565066+23224014+22859438+23009646+23599268+23980966+23801668
3943.71+23311748+22887264+22751448+23053154+23712262+24289236+24425868+24319910
3938.57+24443092+24906864+25402024+25656204+25695284+25691154+25666240+25357518
3933.43+24470584+23212102+22368336+22524166+23351134+24010932+24173850+24265756
3928.29+24710838+25271582+25323758+24688650+23896386+23505274+23451374+23397006
3923.14+23420240+23760976+24112148+23873742+23058342+22330854+22154536+22331208
3918.00+22356318+21984596+21547322+21688476+22587940+23676170+24405926+24864022
3912.86+25295426+25640854+25854448+26029920+26020590+25620786+25109750+24881958
3907.72+24762172+24354362+23553624+22165142+19923512+17438358+15962690+15688386
3902.57+15637993+15530870+16068897+17157500+17697030+17520656+17912110+19711744
3897.43+22173984+24069090+24920432+24984168+24782116+24761466+24832154+24203698
3892.29+22239158+19650420+18277174+19211316+21655718+24092684+25696108+25931318
3887.15+23970470+19902558+15949884+14905514+17198996+20790014+23708136+25269810
3882.00+25298966+23781264+21590090+20477940+21558278+24117224+26512612+27898274
3876.86+28451186+28248066+26906456+24599204+22598314+22216292+23447600+24831446
3871.72+24413122+21115450+15935784+11813380+11413069+14773422+19608162+23349130
3866.58+24452886+22827722+20035820+18525840+19529892+21815850+23301960+23546786
3861.43+23829152+25082248+26778160+27954066+28226312+27693560+26857308+26318434
3856.29+25199222+20642918+11056198-275916-7204639-7358116-3503396+1901951
3851.15+8732684+16199431+22118710+25464004+27162606+28339930+29309052+30023404
3846.01+30252858+29483416+27558950+25319270+24015650+24017538+24397666+24085136
3840.86+23205736+22445072+21073040+17341128+11796029+8335577+9853516+14308412
3835.72+17828616+19610046+21372368+23683010+25096178+24537254+22941146+22341228
3830.58+23837762+26603208+28857130+29549664+28841754+27429426+26121442+25756212
3825.44+26586080+27821918+28357544+27567574+25091572+20846544+16011915+13011288
3820.29+13460031+16743166+20987056+24067084+23764040+19118820+12502718+8819420
3815.15+10978154+16978708+22739658+26131596+27517468+28010570+28194746+28171342
3810.01+28084924+27953122+26895942+23570138+18364566+14403612+14688300+18558898
3804.86+22825482+25371804+25631176+22884670+16820266+9882093+6684698+9524799
3799.72+15957168+21876064+25107628+25700126+24690068+23482746+23382620+24660686
3794.58+26357054+27493000+28060810+28543644+29015128+29181662+28896982+28262606
3789.44+27514274+27005464+26972144+27233618+27415716+27382864+27191674+26852348
3784.29+26412686+26033580+25822922+25784428+25803912+25433896+24149312+22297620
3779.15+21222638+21818440+23497840+25117776+26239658+27033348+27613784+27909622
3774.01+27857142+27515218+27052958+26422960+25097476+22751682+20302848+19490818
3768.87+20960554+23351722+24656790+24074516+22526404+21671860+22378708+24050100
3763.72+25502134+26194192+26295758+25896720+24694314+22596426+20385858+19375834
3758.58+20057486+21411838+22084414+21932038+21890678+22596308+23400076+22376588
3753.44+17627892+9817444+3179350+1463897+2794572+2445455+27967-80401+4659064
3747.65+11655825+16769962+17083794+10979325-33792-9283557-9497868-1160266
3742.51+8707636+15170430+18222008+19656306+20604882+21333374+21287078+19483052
3737.37+15873170+11833428+8881460+7733342+8589655+10863318+12672774+12379232
3732.23+10865192+10882651+13713839+17780870+20947600+22635446+23291582+23040656
3727.08+21743970+19897026+18643956+18739012+19791788+20674130+20589926+19829808
3721.94+19493762+20294252+21673394+22453912+22272866+21891384+22128372+23011062
3716.80+23987220+24469522+24170666+23223068+21733484+19143884+14958118+10474915
3711.66+8386601+9589084+12014095+13681568+14976083+17017614+19554258+21616248
3706.51+22895162+23539710+23654230+23520368+23369648+22727986+20963618+18609718
3701.37+17251544+17876712+19943996+22153710+23614128+24212192+24296552+24233428
3696.23+24170902+23992174+23536524+22985946+22718556+22386608+20831350+17821678
3691.09+14985947+13453814+11588304+7444751+2811726+2124164+6886057+13867335
3685.94+19306870+22105508+23028156+23021436+22731288+22560824+22610924+22701106
3680.80+22459804+21575128+20302256+19432796+19073988+17698912+13391042+6380713
3675.66-51969-1918029+1928545+8978854+15291509+17783460+15543908+10433912
3670.52+6148197+5305688+7509554+10968895+14715774+18355276+21223936+22916028
3665.37+23736914+24074870+24078174+24052692+24297850+24678860+25017924+25433896
3660.23+25808164+25710752+25097240+24013644+21822330+18262118+15025402+14478860
3655.09+16817916+20148844+22829254+24109082+23429322+20659880+16508121+11953480
3649.94+7889412+5429897+5367032+7191992+9775400+12724497+16113778+19552846
3644.80+22450374+24594600+25891054+26238950+26041966+26107034+26742248+27483076
3639.66+27793432+27598774+27195930+26992704+27196752+27570056+27603266+27000382
3634.52+25911244+24897654+24718392+25690914+26922172+26471270+22776910+16250894
3629.37+9645293+6494118+8425689+13904303+19905620+24398728+27108254+28690982
3624.23+29730556+30305876+30245994+29600890+28597920+27166504+25073868+22744020
3619.09+21280010+21352460+22653012+24561442+26557024+28025114+28538916+28307772
3613.95+27709280+26764928+25800726+25850670+27240474+28482046+27880546+25747116
3608.80+24041604+24055524+25379594+27026848+28624644+30345880+32222034+33831436
3603.66+34666168+34648256+34160592+33681580+33482900+33533754+33554736+33415684
3598.52+33473654+34081736+34823104+34864856+34094068+33284948+33157532+33790652
3593.38+34870904+36017628+36974776+37689552+37986916+37284736+35307372+32905338
3588.23+31363720+31013374+31373902+32354012+34183356+36442600+38228008+39183500
3583.09+39655176+39999824+40279344+40504660+40760684+41118144+41545296+41898488
3577.95+42062080+42142920+42402140+42939992+43582128+44096108+44416388+44659580
3572.81+44940124+45157384+45085244+44701544+44181560+43483588+42344748+40834816
3567.66+39502140+38795144+38768396+39415940+40778300+42616024+44426752+45860012
3562.52+46840368+47345296+47391384+47259820+47434720+48132436+48956808+49298912
3557.38+49130900+49078440+49547256+50208908+50570840+50566056+50318660+49908832
3552.24+49628892+49908236+50715776+51559428+52148632+52541448+52714064+52572456
3547.09+52324328+52330192+52648112+53057188+53451152+53989532+54899192+56159416
3541.95+57378220+58100256+58269888+58192096+58122228+58129428+58202780+58251160
3536.81+58218988+58362928+59002584+59931520+60589844+60855968+61085712+61405296
3531.67+61605276+61654944+61746580+61917488+62013712+61897644+61504496+60988332
3526.52+60798272+61218088+61952732+62611852+63272752+64089208+64746516+64896128
3521.38+64788680+64974072+65601072+66356056+66863508+66968420+66819020+66749444
3516.24+66987712+67540088+68358688+69364168+70279800+70771608+70815104+70686304
3511.10+70620696+70714456+71042872+71611384+72249104+72742368+73048264+73287176
3505.95+73608048+74077336+74601328+74971440+75062496+75018792+75164824+75726784
3500.81+76625896+77522256+78095936+78328432+78475576+78766232+79207016+79664304
3495.67+80019240+80231808+80388800+80697592+81284952+81996064+82539824+82877888
3490.52+83244104+83718984+84067240+84139488+84166136+84449000+85000128+85695800
3485.38+86459552+87075936+87179992+86726664+86176144+86005176+86305248+86969096
3480.24+87896424+88896640+89716168+90257320+90525320+90439288+90020824+89673960
3475.10+89896616+90753560+91828880+92625216+92907712+92840872+92880832+93356856
3469.95+94080448+94540976+94492176+94179368+94046088+94357416+95033424+95695472
3464.81+96004488+96044504+96230192+96735544+97237368+97392544+97324816+97410296
3459.67+97780960+98302536+98896800+99543600+100031296+100097896+99883896
3455.17+99890136+100331560+100864728+101110872+101132960+101171000+101246720
3450.67+101323176+101532936+101913456+102185880+102150272+102067160+102349320
3446.17+103024536+103742872+104175320+104274384+104275368+104465520+104821288
3441.67+104999080+104840728+104648184+104737816+105067568+105472768+105885800
3437.17+106149192+106067984+105805104+105804112+106231624+106840488+107340216
3432.67+107553824+107367424+106879128+106399936+106143288+106166896+106623776
3428.17+107570696+108575976+109031912+108820496+108241432+107538800+106948424
3423.67+106832728+107269440+107800688+107984536+107894768+107872112+108091800
3419.17+108495032+108862264+108909072+108567344+108150536+108026776+108214208
3414.67+108424712+108449208+108432456+108729088+109426344+110102776+110296216
3410.17+110104400+109973720+110012424+109963240+109784880+109776136+110073696
3405.67+110415704+110524440+110428392+110316200+110207816+109951400+109537632
3401.17+109251624+109325680+109535544+109424136+108889120+108249432+107737160
3396.67+107306632+106975376+106911000+107019440+106911752+106569496+106599160
3392.17+107371136+108295016+108513760+108061864+107714256+107863000+108175168
3387.67+108240320+107990696+107537200+107056232+106749424+106620328+106481144
3383.17+106359088+106512032+106896000+107070144+106794584+106376320+106299656
3378.67+106724184+107315360+107484872+106978696+106240360+105894168+105986296
3374.17+106150296+106303344+106646904+107147080+107579304+107902032+108136504
3369.67+108091920+107620552+106935872+106358712+105933904+105498224+104993416
3365.17+104558816+104375056+104431608+104467240+104281144+104052544+104138696
3360.67+104542224+104842432+104640200+103913800+103021088+102498008+102704576
3356.18+103455968+104104888+104216984+104040864+104102928+104481136+104787976
3351.68+104801128+104736584+104816248+104915592+104799040+104441064+103956920
3347.18+103455472+103076368+102922096+102814624+102380504+101556864+100821784
3342.68+100721424+101279984+101992632+102353864+102311248+102225784+102416360
3338.18+102742160+102755912+102311984+101848272+101814512+102040032+102054760
3333.68+101870360+101879336+102085816+102096256+101885712+101868280+102152000
3329.18+102407144+102494576+102611240+102796320+102901704+102917544+102825792
3324.68+102357800+101433144+100575552+100412024+100946704+101639840+101998168
3320.18+101945864+101800152+101904120+102178152+102179872+101667944+100887800
3315.68+100287888+100210496+100713320+101469480+102030448+102313336+102507832
3311.18+102549224+102248504+101834160+101713728+101882640+102150896+102614064
3306.68+103275496+103733280+103759696+103587184+103268000+102543200+101615776
3302.18+101162040+101351288+101720360+102015712+102340472+102584960+102510288
3297.68+102239536+102058192+101972128+101845448+101657144+101387120+101070872
3293.18+101023504+101521272+102267288+102602144+102198040+101285128+100374376
3288.68+99951088+100128920+100483168+100479128+100066376+99556728+99071352
3284.18+98514032+97969008+97674872+97613136+97416552+96766648+95815272+95176184
3279.04+95360072+96149280+96718776+96479432+95610664+94668288+93976760+93556208
3273.89+93285472+92933376+92337136+91707120+91414288+91336632+90880160+89861240
3268.75+88881872+88499008+88438888+88089504+87404072+86784656+86337392+85814384
3263.61+85177832+84686144+84433800+84235352+83956304+83615848+83163368+82434800
3258.47+81369992+80121936+78981336+78254456+78073128+78205208+78174760+77710800
3253.32+77045112+76657040+76726600+76890944+76662128+76030848+75466128+75264488
3248.18+75172216+74831960+74325216+74004232+73971200+74007368+73904504+73643864
3243.04+73302672+72921504+72436768+71763200+71004440+70476936+70356256+70366168
3237.90+70041128+69264200+68388256+67820800+67633336+67609088+67549256+67421640
3232.75+67223240+66855552+66285172+65730368+65467788+65427304+65288268+65044176
3227.61+65143444+65781464+66357132+66074460+64947444+63766536+63146024+63014724
3222.47+62993060+62804372+62342228+61764620+61452916+61520132+61583624+61385092
3217.33+61251028+61489824+61765944+61628840+61242372+61044832+61060584+61050604
3212.18+60914632+60603548+60042072+59437864+59198716+59338288+59430780+59269340
3207.04+59101192+59101192+59094340+58884772+58476028+57915644+57264820+56739816
3201.90+56559044+56630536+56675156+56671924+56857256+57199668+57194268+56435264
3196.76+55228684+54372776+54353128+54940420+55555820+55816592+55672352+55228080
3191.61+54670184+54292868+54328092+54652088+54836272+54582348+53996484+53380016
3186.47+52920940+52671688+52647512+52835816+53196448+53664212+54104180+54312632
3181.33+54186840+53849748+53542768+53452592+53623968+53891548+53924608+53553788
3176.18+53052524+52906816+53310328+53990016+54500388+54593368+54361400+54082736
3171.04+53911312+53753204+53491272+53222072+53130352+53200752+53232484+53173092
3165.90+53241832+53589716+54005224+54222656+54389556+54826092+55381512+55531724
3160.76+55165388+54751432+54637464+54677968+54614220+54360800+53958748+53605764
3155.61+53586956+53878492+54073752+53956712+53788656+53839440+54037576+54201932
3150.47+54245780+54126580+53874780+53589000+53237156+52717536+52183456+51902228
3145.33+51809736+51684340+51641140+51889068+52192792+52152936+51788792+51348752
3140.19+50887396+50480200+50430460+50797100+51098148+50866824+50222052+49629248
3135.04+49348984+49272268+49112380+48714272+48265128+48090276+48164320+48116076
3129.90+47800324+47486536+47309364+47016660+46542012+46319348+46636052+47084704
3124.76+47073484+46525544+45714364+44856060+44190148+44036516+44414716+44973632
3119.62+45442532+45762916+45796432+45449448+45027288+44902920+44970524+44903752
3114.47+44684852+44435336+44096464+43685436+43488356+43646000+43906852+44002312
3109.33+43960124+43959768+44081808+44155344+43801508+42878772+41845516+41323552
3104.19+41405204+41755160+42090172+42194480+41894920+41451028+41455788+42009928
3099.05+42533136+42619596+42470856+42349988+42213764+41992184+41754684+41568272
3093.90+41511372+41657784+41857416+41815988+41561724+41433772+41518396+41533992
3088.76+41394492+41451736+41969684+42638300+42877816+42515984+41948732+41597072
3083.62+41430788+41195976+40899432+40793644+40954048+41143020+41101484+40798528
3078.48+40405680+40124712+40032772+40064764+40107584+40073684+39923236+39724148
3073.33+39660296+39803236+39939168+39799428+39436388+39203832+39336988+39669808
3068.19+39837008+39749364+39720820+39982104+40262932+40136728+39618556+39060224
3063.05+38661776+38430380+38374764+38391400+38272092+38092428+38188672+38557072
3057.91+38789432+38725372+38595456+38456648+38102768+37570640+37199580+37131056
3052.76+37181172+37157064+37039964+36954820+37093648+37488084+37827832+37726016
3047.62+37109440+36236988+35477880+35147556+35302504+35657536+35960772+36309992
3042.48+36791780+37082840+36858280+36325188+35904156+35656232+35414400+35189316
3037.34+35046120+34881344+34694044+34822860+35496272+36325900+36645380+36292656
3032.19+35727800+35412028+35412260+35614460+35930508+36200068+36211108+35976084
3027.05+35704776+35478712+35253980+35147200+35358868+35819532+36221196+36346432
3021.91+36171344+35825592+35595600+35726848+36106768+36411256+36588864+36831324
3016.76+37117396+37233072+37197800+37258256+37438908+37432496+37007424+36377892
3011.62+36075788+36397128+37037712+37480004+37654388+37807644+37819760+37303148
3006.48+36433220+35982372+36338364+37053864+37511960+37564104+37405060+37249700
3001.34+37245900+37460412+37866092+38393064+38963216+39492392+39939168+40270780
2996.19+40383548+40268164+40205008+40495260+41022824+41424724+41618856+41792060
2991.05+41970400+42002784+41911472+41939208+42278780+42912244+43614300+44079900
2985.91+44217444+44309700+44692244+45334600+45943880+46361348+46664332+46963428
2980.77+47311636+47736796+48229536+48728012+49203796+49732760+50403312+51131276
2975.62+51691272+51996764+52266636+52776080+53534868+54340432+55052124+55667440
2970.48+56224540+56773404+57343536+57875196+58280208+58582172+58884892+59286400
2965.34+59857268+60546328+61047600+61075248+60805840+60712684+60963200+61338680
2960.20+61718448+62181756+62683436+63021336+63100168+62927828+62469272+61775084
2955.05+61108192+60736844+60674576+60696100+60506548+59941852+59154512+58511088
2949.91+58213344+58157884+58202296+58291736+58292216+58029320+57624232+57494500
2944.77+57862712+58452256+58832416+58915396+58989256+59328440+59909056+60463880
2939.63+60758240+60816904+60930864+61403736+62197032+62865380+62951900+62462896
2934.48+61878276+61660840+61802392+61931684+61829212+61690064+61764620+61930956
2929.34+61896920+61700880+61668528+61916284+62256096+62512584+62586104+62339820
2924.20+61798776+61311868+61160732+61156164+60932068+60446932+59895116+59327236
2919.06+58671024+58007112+57548264+57373660+57331420+57193788+56816588+56146824
2913.91+55238748+54379852+53995884+54160728+54333840+53935632+53073592+52351972
2908.77+52053724+51911924+51630016+51274460+51081280+51052696+50854024+50190256
2903.63+49263900+48637220+48573784+48822636+49095168+49298200+49277044+48865648
2898.49+48323416+48190476+48568172+48955252+48858356+48263936+47526652+46968440
2893.34+46558356+45983248+45162752+44511152+44460852+44960752+45684188+46377100
2888.20+46797048+46738208+46317676+45882200+45575280+45337460+45188984+45143432
2883.06+45075224+45041716+45363340+46076068+46730808+47005088+47050564+47040056
2877.92+46902076+46654904+46539388+46659440+46838576+46913892+46918548+46930604
2872.77+46910792+46726512+46302164+45771736+45419036+45392920+45512900+45389104
2867.63+44735524+43662200+42689276+42273896+42320216+42371892+42248052+42138156
2862.49+42117912+42030644+41878844+41866344+41964444+41832776+41324392+40727492
2857.34+40357384+40163844+39943092+39756020+39866620+40290176+40697864+40819348
2852.20+40715952+40599356+40599712+40754028+40956660+40918944+40423756+39629972
2847.06+38925412+38548632+38508940+38661776+38699572+38308460+37545580+36860420
2841.92+36601928+36669244+36734196+36653928+36545172+36505876+36352376+35784404
2836.77+34860232+34067748+33761132+33810336+33974784+34276096+34734252+35070916
2831.63+34987040+34563572+34181580+34158812+34486952+34819540+34756908+34240988
2826.49+33588996+33132998+32982014+33074806+33282340+33476142+33628000+33784136
2821.35+33919060+33977156+34011424+34097032+34169012+34140076+34059328+34010712
2816.20+34019724+34134504+34361956+34487904+34243952+33681344+33132172+32841700
2811.06+32843126+33050868+33288146+33347886+33231850+33199012+33446508+33862024
2805.92+34167944+34213240+34061104+33828000+33561016+33336510+33307232+33483016
2800.78+33606424+33520236+33486218+33795392+34250836+34391248+34069644+33505538
2795.63+32982246+32702466+32712066+32827838+32881638+32989952+33308888+33697944
2790.49+33941820+34054464+34065376+33871272+33558172+33471756+33741804+34120512
2785.35+34382112+34488500+34389824+34085648+33846732+33984744+34454576+34958924
2780.21+35308680+35472424+35417836+35144712+34814916+34711240+34985024+35448216
2775.06+35752840+35832944+35962432+36298712+36668056+36927860+37184740+37455656
2769.92+37529660+37336524+37132244+37160744+37388192+37646544+37841736+38013412
2764.78+38297404+38753176+39220836+39513436+39712732+40067260+40652892+41326532
2759.64+41898368+42235316+42362016+42503016+42839580+43240304+43489428+43665416
2754.49+43992300+44430924+44743156+44877648+45054240+45515408+46316360+47280836
2749.35+48120616+48697904+49145604+49666784+50333728+51082836+51788432+52337008
2744.21+52785060+53347924+54107172+54917292+55722952+56667240+57722284+58584692
2739.07+59138656+59684140+60519888+61611400+62781512+63918240+64948404+65890536
2733.92+66948516+68278808+69704304+70914536+71912864+73020680+74453888+76087912
2728.78+77648480+79004632+80250504+81611504+83282648+85289448+87456704+89545376
2723.64+91458248+93306240+95271736+97445696+99796696+102214608+104553536
2719.14+106727256+108803504+110975296+113389184+116019600+118723624+121431776
2714.64+124262384+127379904+130731640+134029840+137064736+139918336+142823152
2710.14+145915680+149179120+152530304+155940624+159504016+163325040+167309616
2705.64+171233440+175032208+178825616+182662336+186490320+190356912+194332176
2701.14+198268592+201988128+205659104+209640608+213967440+218306752+222423408
2696.64+226443040+230638400+235118560+239753824+244329856+248771808+253194064
2692.14+257702624+262194576+266454848+270478496+274597984+279191328+284241632
2687.64+289312480+294024672+298398816+302661824+306943328+311310176+315864384
2683.14+320601696+325322016+329823808+334089472+338254880+342520960+347054432
2678.64+351819072+356560640+361064224+365376768+369729952+374311456+379094688
2674.14+383839136+388361472+392798496+397417888+402183904+406788256+411108896
2669.64+415345184+419697248+424169344+428700000+433285984+437946976+442602368
2665.14+447026720+451098592+455104960+459518848+464369984+469195456+473685824
2660.64+477953504+482128864+486204448+490279296+494503808+498836832+503232640
2656.14+507843968+512684576+517417984+521810976+526033312+530293600+534580288
2651.64+538896576+543333184+547854848+552345600+556804736+561218944+565470336
2647.14+569608000+573900480+578381888+582699008+586648768+590543552+594807552
2642.64+599436160+604044416+608334080+612391296+616519936+620899520+625493376
2638.14+630219584+635007104+639708224+644167360+648389888+652483968+656530368
2633.64+660640768+664945728+669343488+673542528+677528576+681663104+686151488
2629.14+690761472+695249152+699676288+704098112+708307584+712136064+715766976
2624.64+719546048+723637568+727948544+732276224+736447808+740425408+744298176
2620.14+748161856+752061952+756048704+760176128+764374912+768473856+772408128
2615.64+776296704+780253248+784272896+788319552+792359872+796289664+800033792
2611.14+803707520+807462080+811236736+814905216+818610112+822594176+826744256
2606.64+830651712+834135744+837413952+840735488+844123520+847523008+850963840
2602.14+854486656+858030784+861480832+864794496+868024448+871232448+874405248
2597.64+877519680+880653888+883895808+887141888+890137792+892793728+895327744
2593.15+898024832+900979264+904120256+907321408+910377792+913055104+915308096
2588.65+917398848+919683136+922346112+925303104+928249088+930863232+933140672
2584.15+935445376+938051328+940754688+943136896+945056704+946739520+948543488
2579.65+950739392+953306816+955892224+958183232+960237120+962227712+964121984
2575.15+965919488+967876928+970097536+972246016+974046336+975717632+977569600
2570.65+979509056+981231104+982625088+983845248+985159488+986725632+988397632
2566.15+989874496+991108288+992303680+993553408+994837504+996262272+997884288
2561.65+999425024+1000579520+1001471168+1002449984+1003663872+1005083712
2557.79+1006650176+1008153536+1009291520+1010092224+1010971264+1012206592
2553.93+1013564480+1014643072+1015452416+1016421568+1017794880+1019231424
2550.08+1020241856+1020852608+1021513216+1022461696+1023567360+1024676736
2546.22+1025688896+1026418624+1026824576+1027245952+1028013312+1029020544
2542.36+1030025024+1031101056+1032431296+1033880576+1035132032+1036061248
2538.51+1036734080+1037257984+1037819776+1038659456+1039802816+1040957696
2534.65+1041806016+1042306624+1042686016+1043231168+1044074240+1045061184
2530.79+1045902592+1046549952+1047273728+1048261888+1049386688+1050548864
2526.93+1051888192+1053356928+1054466944+1054868608+1054904384+1055196160
2523.08+1055964416+1057037312+1058193984+1059195200+1059809152+1060112832
2519.22+1060508928+1061238720+1062073280+1062644224+1062931456+1063293760
2515.36+1064059136+1065143936+1066168896+1066934912+1067568896+1068158656
2511.51+1068586240+1068861120+1069241984+1069845632+1070423744+1070697024
2507.65+1070683776+1070640576+1070819712+1071240960+1071634560+1071741696
2503.79+1071687040+1071838272+1072328832+1072968448+1073502016+1073741824
2499.94+1073603392+1073244032+1072977856+1072922368+1072920000+1072811520
2496.08+1072555968+1072147136+1071660992+1071239680+1070857792+1070321408
2492.22+1069615616+1068957760+1068407040+1067774912+1066977536+1066173312
2488.36+1065473664+1064775808+1063936448+1062961792+1061994944+1061141120
2484.51+1060303616+1059272192+1058008256+1056705088+1055513472+1054337024
2480.65+1052957888+1051277568+1049431552+1047728768+1046398848+1045358720
2476.79+1044310528+1043042944+1041506624+1039711744+1037724096+1035659840
2472.94+1033557376+1031363776+1029098880+1026897792+1024855936+1022956864
2469.08+1021082752+1019063552+1016855296+1014679552+1012761536+1010983168
2465.22+1009080256+1007042560+1005001792+1002903168+1000675776+998515648
2461.37+996631424+994904448+993069568+991021568+988753280+986259136+983687936
2456.87+981350528+979395392+977639040+975795840+973735552+971511872+969279680
2452.37+967215744+965378304+963620032+961706240+959566144+957355776+955268352
2447.87+953370240+951623808+949960640+948294720+946593152+944945984+943437056
2443.37+941955904+940305792+938497984+936800640+935474304+934501632+933539904
2438.87+932201664+930503680+928922880+927822592+926993536+925995712+924724096
2434.37+923374528+922105536+920986048+920013632+918982720+917620224+916000960
2429.87+914563456+913625152+913078144+912557952+911746368+910603456+909422144
2425.37+908542656+907962560+907382784+906624896+905783104+905010752+904342592
2420.87+903689152+902910656+901977408+901074112+900417728+899985600+899558912
2416.37+898971264+898179776+897208576+896171648+895250560+894516096+893823104
2411.87+892990016+892047872+891215424+890593664+889977984+889100992+888010688
2407.37+886998272+886188672+885463552+884751680+884075776+883330048+882339200
2402.87+881136320+879915648+878764480+877674432+876695232+875844160+874952192
2398.37+873815168+872421632+870933440+869494336+868149568+866878144+865663168
2393.87+864513792+863396672+862190848+860806464+859305600+857800256+856272448
2389.37+854604288+852766464+850899328+849194688+847705984+846263808+844609984
2384.87+842630784+840453888+838302656+836306560+834458048+832679616+830890048
2380.37+829003264+826917888+824573056+822049728+819551936+817234688+815084032
2375.87+812977536+810821184+808599936+806316224+803896448+801190976+798143360
2371.37+794974528+792073600+789640064+787479424+785223360+782674560+779885888
2366.87+776981248+774038528+771151872+768466560+766015488+763606080+761024640
2362.37+758319680+755734976+753387200+751169216+748964480+746777088+744601344
2357.87+742315520+739845952+737393536+735289280+733547200+731799296+729840832
2353.37+727940096+726330688+724719488+722721984+720467136+718296704+716156864
2348.87+713757120+711065024+708209664+705181760+701999168+698883264+695961408
2344.37+693103680+690256320+687591360+685148608+682687168+680041152+677350400
2339.87+674819200+672442368+670027712+667405696+664623296+661898944+659351488
2335.37+656875840+654391488+652006400+649761344+647433024+644846080+642181440
2330.87+639744128+637590976+635564480+633530240+631403008+629107264+626681344
2326.37+624310592+622110016+619952832+617651584+615240064+612933184+610828800
2321.87+608799232+606701312+604524608+602299072+600017216+597729728+595562752
2317.37+593550272+591561920+589440000+587100800+584530048+581849600+579343872
2312.87+577196800+575233536+573138112+570871168+568636160+566513280+564386048
2308.37+562209792+560075904+558019776+555962176+553830080+551571584+549102208
2303.88+546411136+543694912+541211200+539019584+536961024+534859520+532678976
2299.38+530493888+528369568+526251200+524017568+521655360+519320096+517156224
2294.88+515138528+513150592+511106496+508942720+506610240+504140096+501647840
2290.38+499252992+497051168+495069120+493154496+491060960+488768704+486533248
2285.88+484485856+482434112+480203360+477903968+475684096+473474560+471166368
2281.38+468800864+466463552+464179712+461991744+459926016+457882336+455758528
2276.88+453640992+451663712+449770176+447833472+445896512+444055008+442222336
2272.38+440243008+438143232+436046688+433953472+431823872+429783584+427992608
2267.88+426373120+424663776+422753664+420772384+418843136+416917760+414886240
2263.38+412741280+410564192+408419168+406317792+404277472+402370016+400632960
2258.88+398946400+397123072+395157920+393219552+391350432+389395904+387320000
2254.38+385341440+383626176+382074848+380522688+378902464+377159424+375257408
2249.88+373310944+371461152+369652960+367755328+365844608+364094112+362477440
2245.38+360832800+359125408+357438464+355783648+354089472+352298976+350414304
2240.88+348509600+346722656+345125696+343625376+342055808+340330624+338471744
2236.38+336597920+334891328+333432288+332063072+330557696+328911808+327289440
2231.88+325709888+324004448+322137376+320381888+319038144+318028576+316909408
2227.38+315338112+313455808+311692096+310250912+308919296+307411296+305720352
2222.88+304061536+302569632+301186112+299809184+298428672+297071840+295687744
2218.38+294179616+292547200+290922720+289434752+288100320+286853472+285600512
2213.88+284246112+282761184+281243712+279835456+278547040+277268512+275947520
2209.38+274625984+273286528+271836960+270332096+269035296+268074048+267163968
2204.88+265900064+264293056+262728304+261397488+260064624+258521872+256958512
2200.38+255677968+254659584+253639632+252464784+251158320+249784336+248446400
2195.88+247279712+246305760+245391344+244434960+243436800+242367920+241153824
2191.38+239814032+238440368+237062720+235689152+234401792+233255008+232186304
2186.88+231160560+230229600+229346224+228328784+227125344+225900784+224776896
2182.38+223688912+222558304+221416080+220307248+219226336+218161472+217116752
2177.88+216117216+215191312+214287680+213250752+212017440+210794528+209846112
2173.38+209141904+208380688+207338336+206050736+204701504+203455360+202390432
2168.88+201498512+200705760+199933088+199164224+198454064+197821920+197141504
2164.38+196246720+195169200+194122912+193191920+192218672+191075168+189861680
2159.88+188747136+187784576+186981488+186353424+185808608+185127376+184178112
2155.38+183062960+181984496+181043552+180229424+179517552+178892768+178296672
2150.88+177643312+176924336+176215600+175542432+174825248+174003920+173126752
2146.38+172252000+171355936+170424656+169542352+168793472+168126400+167397088
2141.88+166526064+165589360+164738016+164053072+163493888+162973648+162436560
2137.38+161855568+161224656+160551680+159816960+158973328+158073968+157303040
2132.88+156759440+156306880+155782352+155211904+154670512+154076336+153296544
2128.38+152357968+151420960+150631152+150060960+149674080+149306272+148788400
2123.88+148086128+147277072+146464176+145765888+145262160+144874096+144418976
2119.39+143845584+143286528+142854848+142496112+142077904+141534896+140907856
2114.89+140289392+139700432+139052976+138283408+137496256+136863520+136429520
2110.39+136109296+135813856+135477008+135057440+134598624+134197456+133837792
2105.89+133374152+132729768+131997728+131305192+130698504+130181552+129741680
2101.39+129295936+128732312+128039952+127345712+126801296+126443744+126153488
2096.89+125759016+125240384+124793920+124570608+124421344+124066824+123467464
2092.39+122810336+122185568+121535072+120895576+120388264+119965840+119445656
2087.89+118832232+118351824+118125040+118030960+117898640+117645056+117226184
2083.39+116651304+116045072+115544448+115139512+114738856+114337288+113982992
2078.89+113630128+113172968+112612624+112073400+111639680+111267368+110871216
2074.39+110433200+109994792+109590992+109214528+108830728+108436040+108103992
2069.89+107914344+107822608+107682728+107406944+107001592+106443360+105703136
2065.39+104928128+104388448+104146064+103969096+103651816+103243424+102889536
2060.89+102616160+102373624+102158504+102002456+101884856+101722816+101445784
2056.39+101066944+100635544+100158000+99639000+99183032+98886880+98670904
2051.89+98340880+97805824+97100320+96300208+95595128+95253024+95295352+95385152
2046.75+95226712+94886272+94534016+94140728+93615872+93020392+92472984+92051544
2041.60+91843296+91877368+91966160+91853184+91505264+91081208+90671672+90283920
2036.46+89987288+89840008+89703600+89343264+88725672+88091456+87713608+87627680
2031.32+87598688+87365816+86925232+86544936+86461384+86585984+86604616+86337880
2026.18+85894624+85455232+85051368+84636384+84254464+84016152+83964080+84052144
2021.03+84172096+84137432+83751576+83012704+82168136+81504344+81159832+81130432
2015.89+81295872+81391368+81139304+80529888+79887040+79570120+79627648+79773792
2010.75+79679232+79268904+78719992+78221704+77833384+77577904+77512440+77598168
2005.61+77619136+77377144+76910088+76431032+76115648+76013160+76073000+76171264
2000.46+76160112+75964336+75611832+75164096+74673480+74236136+73991040+73975912
1995.32+74014040+73833592+73299640+72514048+71739264+71269104+71251216+71509248
1990.18+71635072+71389104+70952840+70704672+70826456+71185592+71479152+71435272
1985.04+71017976+70493856+70175432+70124936+70221328+70394792+70565128+70490224
1979.89+69990280+69273728+68772048+68645672+68661968+68559144+68367264+68295704
1974.75+68400808+68482016+68343848+68051960+67801376+67609568+67318400+66875204
1969.61+66402092+65962492+65475264+64926236+64524296+64519244+64921068+65446704
1964.46+65736152+65611068+65179952+64716292+64440716+64374848+64378820+64302108
1959.32+64113052+63912212+63830824+63871884+63846600+63570548+63120268+62779824
1954.18+62699444+62763452+62810024+62765144+62565524+62209900+61910868+61890428
1949.04+62038976+62044144+61792644+61376796+60901172+60529744+60439604+60429388
1943.89+59940296+58819564+57740044+57482256+58062088+58889816+59525320+59939216
1938.75+60215948+60332760+60255968+60067180+59891868+59764636+59669600+59670804
1933.61+59828068+60023204+60054208+59891148+59654704+59388740+59052188+58691316
1928.47+58430040+58320552+58327752+58420200+58572200+58632964+58293060+57392260
1923.32+56313284+55782656+56120444+56953592+57719280+57955012+57142436+55173060
1918.18+53150948+52711912+54081536+55788416+56612780+56745208+56851140+57039252
1913.04+57115440+57056772+56912440+56709348+56540812+56452776+56352144+56245892
1907.90+56318684+56611580+56886168+56916404+56706468+56427712+56317964+56512868
1902.75+56849340+57005180+56892648+56716064+56623216+56518144+56261600+55938056
1897.61+55816232+55980148+56082912+55733260+55129548+54873548+55113972+55418080
1892.47+55503192+55441092+55095872+54164916+52949552+52356876+52868624+54002952
1887.33+54955404+55347232+55292328+55104260+55022756+55084844+55206144+55344112
1882.18+55490964+55596220+55621636+55589268+55510620+55395064+55324576+55388224
1877.04+55544908+55683388+55770788+55830860+55824624+55663608+55356340+55079212
1871.90+54927956+54516324+53165916+50889788+48900172+48526956+49760852+51489672
1866.76+52910888+53981992+54788220+55260200+55480772+55691056+55925220+55992976
1861.61+55815988+55562772+55451760+55559416+55811312+56066360+56175724+56055208
1856.47+55802440+55663000+55765028+55976304+56113372+56147188+56108088+56022112
1851.33+55999932+56100296+56096944+55690460+54932272+54237516+54040684+54277652
1846.19+53841480+51138216+46284384+42371656+42771924+47011888+51511688+53982588
1841.04+54856048+55223160+55418792+55469864+55408004+55106540+54644900+54506496
1835.90+54893680+55404768+55652452+55654848+55567924+55434496+54956600+53453908
1830.76+50820184+48504976+48393532+50560200+53303496+55123680+55410528+54030624
1825.62+51712936+50242740+50846376+52814508+54647536+55747764+56354064+56691348
1820.47+56800876+56680916+56284496+55674384+55136144+54892724+54904228+55077892
1815.33+55346988+55512900+55403092+55121644+54801280+54292148+53518696+52955656
1810.19+53246624+54324500+55339800+55633872+55484372+55578360+56030744+56409236
1805.04+56509500+56381648+55781816+54472948+52982720+52114640+51777188+51282476
1799.90+50680856+50775696+51839888+53170580+53933472+53931796+53652596+53640016
1794.76+53430312+51487168+47193208+42655208+41105052+43263300+46932992+50130232
1789.62+52539416+54222060+54993636+55144056+55164552+54736932+53379304+51852572
1784.47+51518752+52494524+53688524+54258364+54016248+53107004+52163952+52013756
1779.33+52692876+53560496+54336832+54905188+54637228+53387204+52239464+51468500
1774.19+48996592+43262704+36689076+33951424+36768512+42512060+47561156+49757028
1769.05+48858356+46782364+46491296+49020372+52425460+54484808+55013052+54935028
1763.90+54301016+52167780+48363668+44839132+44433908+47672084+51859512+54169112
1758.76+54168872+52808404+50836812+49311704+49680884+51789388+53679780+54338996
1753.62+54286516+53057072+49241792+44013992+41409012+43212904+46588312+48530068
1748.48+49263784+50310168+51940280+53528992+54655804+55090956+54752632+54046560
1743.33+53782552+54542560+55783016+55606648+52584304+48317560+46671852+49244544
1738.19+53542052+56631616+57533140+55352980+48448840+37450312+27533180+25151064
1733.05+31685944+42215788+50675356+54343548+54387280+53768296+54425620+56085548
1727.91+57530500+58229192+58511328+58781860+58997776+58867120+58368692+57908920
1722.76+57940492+58504480+59167004+59255532+57952496+54174860+47151788+38324732
1717.62+32351522+33411538+39678724+45333648+47903736+49813800+53282548+57184552
1712.48+59767036+61054572+61583144+61470708+61310780+61832096+62479260+62017680
1707.34+60280360+58232792+56906800+56817312+57779052+59365800+61642788+63855504
1702.19+62393356+53377264+39009932+29333656+33137028+47375864+61374268+67203824
1697.05+63029168+53254400+47570708+53413668+67229264+79655456+86484520+89797424
1691.91+92325904+94437152+96084168+98284512+101531952+105109488+108773568
1687.41+112680008+114826232+111505576+102243712+93125240+92538712+102213024
1682.91+116326272+128952856+137800208+143231856+147000672+151011904+155919904
1678.41+161069136+165422960+167639328+166471104+163118432+162389968+168410368
1673.91+178979616+187879248+192089344+193676784+195424032+197088688+197353184
1669.41+197673664+201536752+209887872+219735536+227788384+233414944+237736480
1664.91+241252816+243310080+243873568+245007312+249430048+257263824+265700768
1660.41+272380704+277434656+282042656+286709216+291400928+295869152+299266144
1655.91+300343776+297852416+290383520+277896704+265722784+264504128+279383424
1651.41+301926144+320216640+329775648+332498272+331724928+329666016+327073088
1646.91+324187776+322649536+325613792+333848832+343301024+349433472+351905792
1642.41+353109984+354174432+354633152+354488544+353923168+352169792+348783584
1637.91+344403456+338548928+329324288+317906048+310685792+312448736+319291968
1633.41+323661024+322651040+318113216+312421792+306544448+300496192+293609760
1628.91+285134528+275624512+266916576+260217312+254876896+249001312+240764976
1624.41+229993248+219141456+211510992+207713184+205276464+201877696+197286656
1619.91+192422720+187507648+180851664+169958224+155569088+144235808+142806480
1615.41+149346160+155699312+157491088+156160080+154121840+152015968+149977296
1610.91+148379920+147085104+145758880+144585216+143668736+142643136+141475376
1606.41+140632608+140233456+139989568+139782416+139506208+138874064+137981264
1601.91+137340256+137062624+136830896+136633824+136596592+136427280+135909680
1597.41+135416064+135209648+134968416+134566160+134425488+134716592+135137216
1592.91+135625632+136342176+137043760+137350000+137398144+137579152+138062800
1588.41+138962144+140315056+141743952+142862256+143877184+145065088+146134928
1583.91+146838736+147483760+148276080+149065680+149974880+151216608+152477376
1579.41+153507648+154241392+153074256+147222912+137361872+130481864+133752696
1574.91+145107760+156126752+162173584+164615552+166030256+166348288+163942672
1570.41+159132592+155299600+155885056+160637824+166251872+170013760+171273120
1565.92+170626176+169345152+168922048+169936608+171563024+172151104+169443888
1561.42+161204144+147690096+133293176+123428104+119902152+122259616+130885768
1556.92+143824128+154408464+156984560+152771440+148502736+149490048+154752384
1552.42+159644368+160976272+158874992+155708528+153906016+154173664+155496928
1547.92+156475776+156029200+153251808+148073824+142487456+139294464+138195984
1543.42+135280192+128255208+119891752+113804880+108668608+101280832+94164816
1538.92+94576808+104379728+116684336+124432888+126173120+123768608+118750864
1534.42+112238632+106792368+105508312+108450192+112277136+114293192+114630616
1529.92+114115288+112515224+109987408+107936264+106827080+105225080+102504520
1525.42+100493728+100821784+102046904+100954784+95768400+87716656+80745808
1520.92+79470848+85380976+94695448+101272616+101781864+98233296+95727536
1516.42+97130824+100870624+104327472+106511288+106927136+105102976+102255992
1511.92+100794920+101119584+101230768+99754392+96764808+91843664+84022584
1507.42+74184336+66104720+64368584+70788280+82474784+93862080+100943000
1502.92+103443072+103580304+103530288+103758232+103141720+100912464+98497624
1498.42+97944144+98279736+96567816+93381784+93513056+99204608+106626472
1493.92+111526176+113620496+114135440+112924936+109890144+107017472+106911376
1489.42+109889400+113792288+116576224+118383384+120929784+125045216+129572344
1484.92+133082608+135553696+137675040+139555632+141026944+142540736+144802304
1480.42+147871088+151276048+154653504+157570672+159208944+159346752+159532704
1475.92+161734928+165332528+167257840+165899488+163355424+163291584+167549824
1471.42+175291952+184163632+191593840+196221824+198660192+200405824+202042400
1466.92+202873696+201986080+199624112+198010816+199917472+205251248+210696272
1462.42+213866960+215466464+216599872+216667424+215140304+212501408+208078928
1457.92+200417824+191911568+189598816+197255600+209854800+220061696+225460304
1453.42+227693072+228564544+228715184+228555904+228596896+228757840+228231232
1448.92+226490144+224306208+223390384+224666048+227192480+229245888+230047392
1444.42+229966272+229457888+228586816+227563200+226851568+226398944+225592512
1439.92+224294176+222674384+219526416+212736944+203068656+195865280+195860256
1435.42+200865376+204693248+204500448+201857136+198870320+195961376+192753472
1430.92+189057872+185110192+181802640+179955600+178944112+177337200+174906560
1426.42+172388560+169661568+166091264+162230928+159258624+157279056+155747648
1421.92+154257376+151355728+144804688+135260352+127863664+127077824+131134464
1417.42+135097632+136847888+137308992+137415744+137227360+136853776+136501744
1412.92+136036976+135326912+134558048+133900808+133399480+133240168+133579136
1408.42+134165744+134513984+134263984+133198136+131398160+129671320+129180040
1403.92+130141064+131444664+132009184+131780184+130908920+128857264+125355056
1399.42+121638736+119472648+119047704+118933016+117777472+115075240+111075072
1394.92+107125048+105301696+106290928+108314960+109196288+108505872+107105112
1390.42+105624168+103937880+101437688+97704152+93586288+91158120+91532488
1385.92+93381168+94698512+94945592+94632208+94057952+93375792+92917248+92686304
1380.78+92256632+91486456+90692664+90120160+89829640+89839888+89880392+89414120
1375.64+88309176+87097512+86432640+86711072+88083408+90270496+92511344+94140968
1370.50+95022416+95291320+95128712+94919056+95062904+95466400+95660480+95355664
1365.35+94503312+93092616+91390112+90061464+89528296+89501232+89615040+90075008
1360.21+91134680+92345448+92939008+92717104+92111264+91551424+91171312+90986720
1355.07+90945456+90814120+90348592+89615896+88930656+88464008+88100720+87711424
1349.93+87367872+87205824+87208864+87223976+87097144+86772352+86362120+86154968
1344.78+86426792+87138200+87891064+88217864+87852416+86793312+85344104+84093144
1339.64+83574616+83807536+84344248+84784232+85059512+85248056+85400336+85582448
1334.50+85851152+86102728+86100048+85738280+85203992+84841552+84861752+85167120
1329.36+85446232+85456088+85223232+84966904+84870152+84965200+85203992+85531560
1324.21+85819496+85849576+85561640+85228096+85096272+84946456+84380136+83497760
1319.07+82821720+82563160+82466648+82358832+82326632+82346192+82223328+81934336
1313.93+81668968+81574808+81700680+82036416+82405872+82524504+82317392+81966288
1308.79+81614528+81292848+81118536+81230048+81512488+81712712+81829592+82081736
1303.64+82477336+82718264+82631472+82441120+82445488+82628312+82790232+82919824
1298.50+83157032+83471752+83674112+83732976+83829056+84114672+84590152+85167728
1293.36+85699936+86051944+86267488+86542984+86921712+87206312+87280392+87338872
1288.22+87663392+88326976+89197256+90059632+90701440+91052888+91329064+91860880
1283.07+92719176+93657792+94443992+95077832+95657784+96218568+96765184+97318936
1277.93+97907032+98612208+99571320+100798840+102111728+103331264+104436752
1273.43+105445216+106337928+107214912+108316936+109783400+111480416+113101616
1268.93+114418720+115521968+116816808+118613672+120713616+122634776+124183664
1264.43+125586672+127143360+128980008+131055968+133243288+135502592+137977024
1259.93+140737904+143559120+146215904+148834672+151673056+154746080+157899488
1255.43+161039648+164146320+167312048+170788832+174696560+178759200+182646224
1250.93+186416736+190278048+194117632+197699824+201191840+205084272+209585744
1246.43+214339440+218826288+222958944+227163952+231872448+237062832+242408144
1241.93+247727408+253099344+258635728+264331232+270118944+275963360+281907872
1237.43+288024608+294288000+300538944+306616000+312514368+318382688+324397664
1232.93+330621376+336957120+343265472+349490848+355675328+361939616+368447424
1228.43+375209056+381907552+388138592+393827808+399236224+404654880+410290688
1223.93+416242432+422335744+428173088+433536448+438556640+443417952+448148864
1219.43+452694496+456961600+460897856+464703392+468708480+472851264+476611648
1214.93+479613344+481966272+483953120+485773248+487583072+489415904+491061152
1210.43+492275296+493028992+493393568+493369696+492931360+492075488+490787424
1205.93+489102848+487136672+484928576+482370272+479387872+476069824+472553152
1201.43+468870816+464929280+460574848+455747040+450620928+445484224+440431168
1196.94+435271360+429752064+423802816+417608288+411479232+405609472+399897216
1192.44+394039744+387823712+381328224+374890528+368844320+363244928+357866752
1187.94+352469664+346987616+341452064+335879552+330317856+324919776+319896800
1183.44+315351552+311139040+306979424+302787296+298795360+295234656+292007296
1178.94+288802656+285442880+282017152+278762080+275846176+273257056+270905568
1174.44+268750336+266699824+264524400+262148992+259860864+257937296+256272512
1169.94+254686672+253325888+252369200+251601696+250599616+249195744+247592192
1165.44+246180208+245249600+244720208+244256816+243710016+243176304+242629776
1160.94+241932416+241213552+240774720+240614336+240506816+240411280+240383984
1156.44+240302416+240099648+240009904+240233120+240641488+241074352+241566208
1151.94+242110864+242603792+243183392+244230672+245865520+247781872+249710576
1147.44+251726672+253928896+256128672+258141648+260197760+262712448+265716240
1142.94+268874528+272047232+275451872+279221728+283185920+287169408+291161280
1138.44+295123264+298995360+302965376+307402816+312457600+317966368+323720992
1133.94+329573632+335366048+341034272+346763136+352847968+359445280+366533632
1129.44+373974464+381549440+389121472+396819840+404865696+413212800+421618400
1124.94+430084416+438950560+448467168+458482592+468625920+478648000+488592576
1120.44+498735328+509336736+520331680+531289088+541774912+551771008+561702784
1115.94+572042816+582872512+593845440+604566336+614891072+624829440+634417536
1111.44+643903936+653791488+664292480+674866304+684665408+693403008+701513152
1106.94+709571136+717835008+726212416+734402560+742150272+749543808+756923328
1102.44+764350400+771408128+777729664+783461824+788994432+794490176+799928960
1097.94+805351232+810767232+816036416+821118016+826195776+831266048+835879232
1093.44+839653760+842880000+846254400+850157376+854477120+858954752+863359872
1088.94+867409536+870835904+873621888+876050432+878487168+881114112+883792704
1084.44+886159488+887864256+888780224+889073088+889136256+889344128+889663744
1079.94+889577024+888572736+886585920+883781760+880189504+875880704+871220736
1075.44+866565376+861890688+856952704+851526464+845310144+838070336+830059904
1070.94+821817856+813432192+804516160+794880896+784613632+773600960+761682112
1066.44+749144960+736402304+723367744+709780608+695870272+682102144+668541120
1061.94+654988288+641476480+628210048+615200704+602276736+589350400+576564800
1057.44+564130368+551973824+539694208+527137120+514838272+503457696+492929312
1052.94+482624416+472218272+461896864+451853248+441999584+432136608+422199232
1048.44+412435744+403315552+395034656+387183808+379233024+371227904+363660224
1043.94+356695840+349883552+342709568+335258432+328182048+321977024+316458368
1039.44+311136320+305949120+301210336+296899456+292496032+287635392+282535360
1034.94+277667808+273295392+269351840+265520944+261418656+257006240+252809152
1030.44+249443008+246909872+244642928+242249728+239870800+237697152+235538624
1025.94+233132800+230649264+228580112+227203984+226331296+225524144+224474800
1021.44+223240672+222165040+221529744+221332432+221399776+221581440+221775104
1016.94+221900432+221952128+222053024+222388176+223081056+224084704+225211456
1012.45+226351472+227583232+228977312+230451296+232024384+234080512+237064800
1007.95+240981136+245426048+250096320+255071648+260597808+266761488+273454848
1003.45+280569312+288132640+296282816+305161536+314791904+325026464+335667488
998.95+346660576+358047136+369769216+381741824+394099456+407049920+420462016
994.45+433900672+447030528+459728480+471888640+483424064+494262560+504027808
989.95+511975424+517525952+520620320+521335488+519534592+515165696+508562400
985.45+500174496+490251168+478980640+466691968+453714912+440187840+426204992
980.95+412079040+398271456+385045408+372299168+359767392+347305088+335042368
976.45+323345696+312532544+302535744+292989824+283690144+274753984+266329312
971.95+258472928+251291888+244814064+238765824+232857504+227224688+222235008
967.45+217980000+214238656+210741968+207297888+203912240+200871312+198378240
962.95+196118416+193598320+190883200+188559120+186929680+185643936+184233168
958.45+182716336+181511856+180863424+180575216+180289328+179793456+179013840
953.95+178000144+177028720+176447200+176309472+176410080+176632496+176987248
949.45+177382080+177643936+177673296+177420272+176924112+176459056+176350032
944.95+176574736+176821280+176880480+176747296+176504336+176327568+176421424
940.45+176794880+177242416+177540592+177532944+177213952+176861200+176799200
935.95+176976640+177120688+177254272+177626608+178267168+179078448+180146496
931.45+181458144+182521488+182744208+182159216+181477600+181398192+181945104
926.95+182588512+183031600+183584352+184505008+185388848+185701984+185582176
922.45+185580112+185907520+186380464+186816592+187184336+187597936+188265152
917.95+189179808+189993168+190524656+191117952+192098624+193160272+193703168
913.45+193628544+193509552+194022144+195304032+196820096+197862160+198185296
908.95+198115520+198106112+198338512+198658624+198836912+198942576+199383712
904.45+200326816+201267952+201588144+201389728+201309920+201632960+202096032
899.95+202487488+202935728+203532704+204089072+204449088+204775392+205332896
895.45+206096320+206740720+206954448+206667408+206054608+205433088+205061248
890.95+204911776+204742784+204428784+204075488+203808800+203637184+203497136
886.45+203232704+202668048+201887360+201269856+201039968+200997344+200894528
881.95+200815136+200929168+201110336+201039728+200574960+199846496+199081376
877.45+198464256+198091664+197899552+197677648+197311680+196985312+196892896
872.95+196761440+196069584+194826992+193676784+193068576+192817136+192612016
868.45+192436352+192254688+191806016+191000256+190172464+189683584+189440928
863.95+189001776+188136080+187181536+186718640+186888912+187228448+187210736
859.45+186728128+186059008+185715424+186195760+187387984+188310064+187977120
854.95+186545824+185180160+184834800+185495808+186420608+186801328+186369200
850.45+185600496+185265728+185681360+186538896+187480336+188468656+189388272
845.95+189579456+188321232+185887920+183625456+182736928+183483632+185610752
841.45+188728800+191894992+193791552+193937088+193047216+191817200+190292560
836.95+188742512+188057168+188590064+189415376+189404848+188417088+187049680
832.45+185836544+184872448+183808880+182169168+180177168+178976144+179325456
827.96+180336240+180288192+178695232+176916320+176494768+177138672+176882000
823.46+174550288+171473712+169880448+170087248+170554208+170254160+169400672
818.96+168216192+166747104+165546112+165004256+164449616+163122096+161331712
814.46+159702640+158376688+157564640+157570672+157828368+157242448+155690464
809.96+154065616+153087584+152978848+153617456+154200032+153613392+151793552
805.46+150061712+149880160+151670128+154458528+156284800+155710784+153250528
800.96+150759408+149639120
##END=
