##TITLE=octarelline 6 front
##JCAMP-DX=4.24
##DATA TYPE=INFRARED SPECTRUM
##DATE=31/1/2005
##TIME=16:54:35
##SAMPLING PROCEDURE=film
##ORIGIN=Vincent
##DATA PROCESSING=no operation
##XUNITS=1/CM
##YUNITS=ABSORBANCE
##RESOLUTION=2
##FIRSTX=4000.283
##LASTX=800.31372
##DELTAX=-0.64282227
##MAXY=0.23375773
##MINY=-0.0020768791
##XFACTOR=1
##YFACTOR=2.1770386e-010
##NPOINTS=4979
##FIRSTY=0.0043706321
##XYDATA=(X++(Y..Y))
4000.28+20076044+20394956+20134898+19379424+18435576+17657350+17306374+17439994
3995.14+17800594+17946240+17701980+17370304+17311174+17476220+17571940+17503688
3990.00+17428958+17540154+17891172+18294208+18381090+17978998+17354592+16892744
3984.86+16715037+16799930+17157054+17656392+17961598+17862856+17469982+17000548
3979.71+16656164+16623792+16874396+17019860+16744653+16294815+16231519+16719473
3974.57+17342840+17636238+17559226+17386856+17291382+17209224+17078742+17002828
3969.43+17097210+17326286+17574460+17753804+17794356+17663590+17442392+17277710
3964.28+17245686+17292820+17278428+17113880+16915408+16950424+17330724+17853020
3959.14+18223532+18290972+18054344+17649796+17330846+17202270+17068428+16752926
3954.00+16443590+16445747+16745852+17029812+17013502+16648610+16164390+15924420
3948.86+16033372+16142451+15860297+15270943+14827545+14795562+15022935+15180843
3943.71+15082838+14796519+14590132+14785859+15494778+16376573+16815520+16556767
3938.57+16100018+16145209+16745613+17365508+17679306+17801310+17759802+17259480
3933.43+16157317+14882411+14173711+14402571+15177488+15710487+15698501+15680164
3928.29+16293016+17335162+17920686+17516044+16470204+15525214+15134475+15350745
3923.14+16034452+16882790+17399210+17195194+16387843+15567636+15267707+15460385
3918.00+15611618+15309405+14840244+14906610+15711206+16708683+17426680+17957998
3912.86+18419494+18599276+18439418+18233250+18078944+17791592+17469502+17417444
3907.72+17513646+17333362+16693212+15504244+13614666+11421187+9905875+9400709
3902.57+9266075+9246603+9858436+10989883+11571873+11279482+11271947+12555675
3897.43+14652179+16428964+17349794+17529596+17307454+17070106+16945868+16469846
3892.29+15088827+13249196+12410180+13467536+15640138+17478016+18326370+18089260
3887.15+16375494+13139797+9919736+9017976+11005784+14176584+16677505+17913968
3882.00+17927884+16761559+14976093+13897102+14503416+16343605+18170254+19323956
3876.86+19897454+19857822+18822160+16918886+15243386+14981365+16192080+17576020
3871.72+17374862+14720095+10639359+7685075+7863413+10851435+14668589+17447192
3866.58+18089982+16358709+13431983+11709771+12687659+15202049+16909292+17123236
3861.43+17114840+17961476+19332360+20419342+20814482+20394956+19416044+18461616
3856.29+17070346+13111790+5378279-3422937-8359046-7723097-4000688+705823
3851.15+6284479+12120297+16525956+18810756+19835966+20537912+21193592+21827134
3846.01+22224116+21795640+20294890+18464018+17401610+17386616+17665390+17416004
3840.86+16675706+15886425+14555039+11516022+7285368+4900838+6612764+10665180
3835.72+13702421+14950815+15992019+17572300+18617276+18231330+17125634+16756283
3830.58+17720332+19297904+20359278+20406968+19678770+18655322+17876054+17912646
3825.44+18847486+19925914+20217176+19298384+17009184+13368419+9418987+7242167
3820.29+8090595+11147710+14668948+17142424+17133190+13857709+8858764+5810995
3815.15+7144790+11567328+16091267+19064880+20512440+20996038+21009136+20920456
3810.01+20899312+20738548+19709032+17005824+13033396+10040433+10263082+13303301
3804.86+16705445+18693850+18811234+16631584+11952584+6573635+4028149+6135027
3799.72+11033643+15574346+18066824+18439898+17426080+16266642+16175418+17306734
3794.58+18680048+19428772+19622932+19765712+20055870+20377656+20597496+20652882
3789.44+20566264+20452134+20372490+20254892+20027162+19675646+19162238+18522704
3784.29+17997474+17821708+17972636+18280890+18521622+18274290+17219422+15788744
3779.15+14989749+15328098+16413019+17691900+18894660+19747218+19971194+19668322
3774.01+19275692+19120342+19199574+19131746+18256050+16275274+14013968+12990310
3768.87+13849807+15621802+16771271+16619955+15672495+14916553+14960759+15714440
3763.72+16713717+17583456+18160054+18295170+17685182+16140774+14221973+13197369
3758.58+13769827+15133876+15947552+15918906+15816432+16248060+16776310+15862094
3753.44+11904976+5432527+53270-1025643+504457+417042-1785383-2360046+1080183
3747.65+6578049+10735353+11129536+6409369-2268120-9539928-9480522-2516808
3742.51+5499654+10491732+12609400+13505007+14064021+14380653+14125332+12775972
3737.37+10262125+7249446+4603940+3095344+3410836+5316283+7047061+6970575
3732.23+5795612+5918801+8409266+11872083+14481618+15746799+16099778+15840881
3727.08+14989870+13752826+12732653+12555795+13187794+13750073+13350104+12183103
3721.94+11452758+11995767+13282833+14115632+14050969+13743847+13989779+14816644
3716.80+15625277+15922261+15723668+15278612+14438621+12492258+9104574+5485585
3711.66+3773077+4630160+6507783+7923698+9116997+10827645+12732054+14062583
3706.51+14830301+15498730+16088512+16254174+15752790+14478623+12568000+10748384
3701.37+10058597+10918027+12723678+14454669+15450080+15681363+15542111+15445647
3696.23+15512751+15537798+15267228+14774478+14359576+13858908+12537487+10314835
3691.09+8429208+7676601+6694963+3843245+357340-373800+2926483+7953901+11943971
3685.30+14032288+14698534+14689430+14661642+14907209+15193183+15175330+14758427
3680.16+13993731+13101497+12580684+12534375+11837632+8883248+3630722-1434185
3675.01-3066566-210449+5212801+10084053+12002107+10294635+6365711+2970424
3669.87+2127265+3697192+6470087+9687806+12833295+15134595+16189323+16439514
3664.73+16512766+16586382+16611323+16579788+16502337+16483273+16632543+16785780
3659.59+16736860+16605087+16217492+14662360+11663485+8906896+8558769+10715150
3654.44+13636096+15819548+16591058+15679804+13360879+10359416+7153622+4100114
3649.30+2140240+2142740+3665148+5629622+7826288+10615212+13714512+16290257
3644.16+17848340+18467018+18559788+18681726+19167880+19838246+20277114+20312430
3639.02+20070520+19788888+19687418+19834884+20129132+20431594+20579598+20346544
3633.87+19809426+19592312+20141264+20780718+20008184+16836144+11829619+7094314
3628.73+5079522+6746265+10892920+15467336+19074482+21251400+22231450+22694298
3623.59+23180226+23646542+23810066+23542948+22672288+21034250+19098854+17840182
3618.45+17764480+18723138+20486734+22590510+24085644+24407244+23987444+23355144
3613.30+22524850+21869932+22284838+23607076+24228022+23123808+21185782+19976720
3608.16+20036770+20925380+22214378+23830042+25728242+27549282+28715418+28973940
3603.02+28676456+28340060+28207756+28335110+28654500+28871396+28828934+28875980
3597.88+29281364+29587634+29270508+28648590+28439800+28856800+29681042+30661984
3592.73+31428868+31696322+31752616+31998368+32022048+31077996+29419046+28198354
3587.59+28074138+28762342+29897804+31376200+32884950+33898916+34290444+34486420
3582.45+34871288+35335260+35598396+35750552+36115812+36636024+36882012+36776512
3577.31+36765980+37113852+37573748+37944904+38402568+39077604+39808068+40407760
3572.16+40763664+40711972+40210344+39516004+38843108+38084400+37135536+36207948
3567.02+35584844+35430032+35943288+37249168+39026564+40670468+41920920+42974480
3561.88+43953104+44640124+44849764+44781672+44847452+45209516+45655092+45922520
3556.74+46035796+46199340+46456372+46609116+46467564+46065852+45678944+45684176
3551.59+46312152+47404076+48489892+49169332+49404684+49446488+49529988+49683580
3546.45+49862056+50197588+50892856+51847800+52689652+53267944+53777624+54310408
3541.31+54694352+54907620+55189484+55621408+56001812+56251180+56529564+56911492
3536.17+57313556+57729784+58239384+58823688+59368848+59744940+59791740+59505308
3531.02+59255292+59502488+60274052+61178448+61847508+62117720+61983896+61652012
3525.88+61447708+61511720+61805312+62361468+63180036+63925884+64209888+64140752
3520.74+64176248+64529792+65062512+65582344+65946952+66079448+66160692+66586264
3515.59+67530304+68710944+69643432+70016536+69930208+69870240+70244512+70852552
3510.45+71143696+71091456+71345544+72356936+73779536+74930192+75461248+75471736
3505.31+75290584+75284296+75637968+76195144+76621392+76722576+76611384+76650792
3500.17+77186760+78184416+79211776+79928256+80413968+80850144+81144864+81184368
3495.02+81231432+81717208+82685544+83720928+84411864+84714672+84869136+85067288
3489.88+85260872+85345880+85447032+85826832+86487072+87123560+87590280+88107696
3484.74+88818664+89422448+89538352+89245864+89007504+89146392+89628016+90280928
3479.60+90999272+91700448+92264008+92606752+92763080+92818128+92837312+92917912
3474.45+93220400+93780272+94354024+94676184+94865336+95319280+96186672+97172280
3469.31+97909728+98320264+98567976+98845712+99230704+99607520+99768632+99716768
3464.17+99728520+100004536+100427136+100793056+101129760+101599384+102242224
3459.67+102929464+103450104+103618056+103427568+103087712+102818408+102699224
3455.17+102799496+103229200+103909264+104549336+105002352+105350680+105577832
3450.67+105536712+105332872+105305168+105541848+105832344+106109448+106504880
3446.17+106997488+107455456+107975536+108714336+109486584+109954168+110125296
3441.67+110297072+110593416+110843912+110884392+110821288+110912672+111201432
3437.17+111363872+111141712+110780320+110725648+111043416+111506584+112021808
3432.67+112497024+112613648+112294632+112036512+112262168+112727512+113043592
3428.17+113282448+113613840+113784144+113417872+112538160+111559144+110973264
3423.67+111059256+111657720+112281536+112611520+112748904+112953624+113362872
3419.17+113915336+114333832+114289008+113828712+113405400+113282072+113262432
3414.67+113181760+113229328+113591808+114133128+114600920+114828008+114725480
3410.17+114387608+114145096+114209432+114340776+114177704+113814240+113744240
3405.67+114205152+114869816+115257416+115262328+115068328+114742240+114232480
3401.17+113706232+113485584+113603640+113719328+113539448+113084728+112563704
3396.67+112244936+112356632+112786016+112996032+112575032+111830504+111467216
3392.17+111686528+111989488+111978040+111946600+112375896+113137344+113629704
3387.67+113548016+113092792+112524200+111946968+111488096+111286168+111326032
3383.17+111528456+111846736+112107088+112050232+111702992+111435544+111512992
3378.67+111844728+112182040+112322056+112201296+112001936+111978040+112063808
3374.17+111950872+111601144+111317856+111289696+111483192+111849248+112224944
3369.67+112261168+111871776+111449240+111248584+111001920+110487712+109980304
3365.17+109752152+109616728+109298928+108879352+108630472+108700272+109059296
3360.67+109523896+109825520+109769744+109359720+108785152+108369576+108400712
3356.18+108806624+109157880+109155872+108910360+108634736+108389536+108270264
3351.68+108485584+109077384+109797880+110342576+110538240+110356888+109935968
3347.18+109508944+109167304+108783144+108189176+107342520+106391376+105713600
3342.68+105670480+106178048+106755752+107101872+107306888+107456336+107469752
3338.18+107391704+107412544+107534144+107594496+107543928+107424832+107225328
3333.68+107006520+106927856+107000496+107090584+107205880+107408024+107510040
3329.18+107319056+107041520+107008392+107155072+107212272+107149176+107010408
3324.68+106606728+105817672+104998600+104709112+105092720+105721896+106020040
3320.18+105808640+105481424+105568048+106131520+106713976+106860864+106570480
3315.68+106260192+106393384+107031360+107715352+107961096+107801704+107575296
3311.18+107333736+106901384+106388736+106119352+106157232+106400776+106981920
3306.68+108034528+109193040+109823128+109668728+108936984+107962736+107129976
3302.18+106844312+107162096+107650096+107864832+107747232+107449808+107151296
3297.68+107153432+107702680+108484568+108708448+107924200+106488208+105163656
3293.18+104545208+104803592+105585984+106179928+106109824+105590112+105177568
3288.68+105100112+105149248+105105008+104972272+104814368+104528032+103924920
3284.18+103071816+102400688+102249224+102376520+102207680+101532584+100756280
3279.68+100467152+100864720+101480040+101480792+100481040+99019024+97901736
3275.18+97310736+96974048+96790432+96686840+96326432+95664536+95259408+95358568
3270.04+95333496+94681408+93828760+93261768+92685096+91742528+90771416+90141352
3264.89+89570920+88709400+87769944+87137720+86818896+86568536+86163008+85451000
3259.75+84488520+83569768+82854224+82185656+81497848+81054328+81016560+81107824
3254.61+80946112+80434528+79723936+79069632+78723504+78639776+78397360+77742520
3249.47+77071072+76944648+77249792+77297008+76715168+75834712+75150696+74776368
3244.32+74558008+74455440+74514192+74555176+74188608+73257088+72068192+71073584
3239.18+70470656+70195728+70083416+69922824+69572504+69151832+68907128+68808536
3234.04+68534592+67949768+67325640+66962736+66829088+66695556+66434556+66027948
3228.90+65500628+65023568+64939792+65370016+65878752+65813976+65018032+63970340
3223.75+63193048+62756168+62405884+61936060+61365064+60898432+60715044+60775848
3218.61+60971740+61386272+62071596+62662304+62685008+62207632+61681932+61268316
3213.47+60869256+60652404+60804044+60951512+60551656+59761236+59236916+59188784
3208.33+59226756+59048056+58783400+58643552+58600940+58437352+57989032+57338764
3203.18+56773852+56487980+56395016+56296428+56110160+55875984+55679364+55640240
3198.04+55790136+55912664+55685596+55074460+54422456+54047484+53900396+53729868
3192.90+53456020+53213840+53120180+53170492+53347208+53686260+54193968+54710116
3187.76+54884032+54389828+53325460+52296700+51868180+51962640+52046600+51829012
3182.61+51512592+51389980+51492460+51709904+51980820+52242016+52345764+52166096
3177.47+51762864+51362768+51189040+51334828+51732968+52159016+52361148+52279364
3172.33+52040748+51678668+51115968+50519036+50312088+50626844+51090956+51342152
3167.19+51409744+51468916+51598744+51836816+52125688+52247996+52133748+52068940
3162.04+52299264+52682940+52937748+52957900+52744840+52369692+52043552+51907476
3156.90+51849384+51767868+51760424+51850972+51882948+51835840+51851704+51943848
3151.76+52071748+52334900+52636064+52519712+51820708+51065216+50759908+50727588
3146.61+50550624+50206608+49919480+49753064+49622628+49432840+49117420+48697872
3141.47+48279748+47917620+47607188+47413332+47387520+47402616+47273912+46994628
3136.33+46680804+46418276+46269440+46290492+46424604+46495924+46354624+45968752
3131.19+45422500+44911420+44649248+44636724+44628208+44409836+44060804+43814180
3126.04+43732012+43660672+43481172+43233036+42955768+42644044+42380340+42285240
3120.90+42278440+42201324+42165612+42386900+42698708+42688012+42327384+41970592
3115.76+41755664+41525708+41309860+41396292+41852680+42327144+42444232+42189540
3110.62+41836044+41563588+41247584+40691704+40005192+39532128+39425764+39517944
3105.47+39628676+39765008+39978144+40177828+40134640+39676220+38955872+38435780
3100.33+38431416+38778248+39099316+39209904+39098468+38791704+38449480+38312624
3095.19+38380388+38402684+38286932+38208752+38236144+38131060+37687524+37070488
3090.05+36726616+36954080+37569624+38047800+38079548+37895100+37893524+38097008
3084.90+38199416+38046344+37781188+37580044+37502016+37563692+37714544+37755620
3079.76+37550236+37283212+37263708+37507708+37777672+37957144+38048644+37927700
3074.62+37501772+37026156+36850396+36904540+36774700+36236888+35507008+35070220
3069.48+35310328+36112056+36873532+37174912+37221792+37305016+37221792+36719708
3064.33+36084936+35714844+35536788+35314324+35106284+35001852+34887016+34760456
3059.19+34801348+34938320+34874312+34610792+34447828+34435728+34314036+33957212
3054.05+33515566+33161666+32969692+32941158+32993626+33053102+33180770+33395138
3048.91+33445316+33073292+32437620+31961152+31803480+31770622+31706474+31700190
3043.76+31917774+32374900+32914086+33301430+33374456+33127092+32651544+32074248
3038.62+31580588+31369320+31408942+31375236+31068094+30825842+31176914+32076664
3033.48+32823422+32857514+32351334+31867032+31698492+31764216+31939162+32181792
3028.34+32379370+32387470+32259492+32237738+32429040+32658676+32754524+32787886
3023.19+32908400+33049962+33008496+32740988+32401972+32100832+31814472+31581320
3018.05+31604994+32000666+32535274+32842524+32865126+32881688+33047784+33153324
3012.91+32944786+32513278+32193028+32185176+32427830+32745580+32978996+32976824
3007.77+32634260+32049840+31596416+31669260+32269760+32932338+33165294+32921458
3002.62+32561258+32439192+32652876+33148730+33847760+34567720+35001008+35012020
2997.48+34907108+35152636+35801280+36444924+36739940+36723948+36621004+36636752
2992.34+36934336+37505652+38066708+38344384+38405716+38484508+38648528+38842024
2987.20+39069000+39365132+39786968+40494512+41520972+42452004+42744508+42417024
2982.05+42062996+42133436+42575288+43144216+43701144+44164016+44472936+44730468
2976.91+45192000+45996248+47003512+47944780+48681180+49236488+49664560+50007748
2971.77+50343544+50749416+51217468+51718816+52288032+52911012+53423776+53698104
2966.62+53864232+54215592+54912756+55834408+56659228+57104684+57164028+57085108
2961.48+57086328+57177608+57351368+57712276+58272800+58759760+58838996+58489880
2956.34+57992708+57562108+57124624+56526872+55874028+55506236+55605756+55910100
2951.20+55938224+55461244+54710608+54126888+53977232+54187252+54474756+54563592
2946.05+54364168+54077656+54062752+54452392+55002592+55432024+55734260+55964760
2940.91+56021260+55880992+55812888+56029572+56384252+56655068+56871116+57132828
2935.77+57364340+57448656+57422224+57403012+57444376+57535428+57663568+57843488
2930.63+58069824+58225056+58122100+57719872+57208324+56833924+56751464+56981352
2925.48+57344516+57560516+57547424+57447436+57255924+56785844+56095980+55530320
2920.34+55197676+54839420+54316272+53813420+53462740+53149980+52760348+52329896
2915.20+51903816+51411820+50773936+50096748+49681140+49691988+49883264+49874976
2910.06+49605444+49218208+48646580+47721780+46600468+45701812+45279940+45256708
2904.91+45342336+45190300+44609972+43769084+43083704+42900976+43284796+43918828
2899.77+44247408+44000152+43569888+43531848+43884920+44125116+43929772+43414332
2894.63+42886272+42595824+42547840+42414468+41874536+41103136+40640492+40769376
2889.49+41276844+41749224+41900884+41749224+41582884+41618100+41699328+41572204
2884.34+41323216+41209712+41189560+41021204+40712700+40528848+40593164+40781024
2879.20+40967316+41158368+41401512+41665932+41844424+41846244+41706852+41586532
2874.06+41600616+41665932+41574508+41235324+40790972+40463568+40326340+40283388
2868.92+40202700+39970136+39488952+38802376+38178940+37860560+37768592+37630448
2863.77+37368012+37156008+37127180+37238388+37406784+37566232+37576772+37269280
2858.63+36643532+35873308+35160016+34701164+34706008+35191484+35800068+36074280
2853.49+35910112+35551064+35251872+35155904+35314924+35560384+35515960+35032344
2848.35+34412508+33992044+33771812+33668776+33756332+33955884+33851992+33137850
2843.20+32044282+31086452+30560802+30448272+30604388+30853618+30980534+30842386
2838.06+30529530+30288188+30216118+30139222+29879458+29519208+29254818+29132112
2832.92+29100380+29170480+29323236+29406500+29314186+29152624+29078782+29078060
2827.78+28995900+28717828+28283734+27875176+27666228+27643560+27682380+27765452
2822.63+27969590+28270228+28537380+28710592+28797324+28778748+28675974+28612886
2817.49+28645452+28640390+28474536+28248760+28166874+28267574+28401446+28424966
2812.35+28314610+28128768+28002992+28112244+28452466+28646298+28297964+27596420
2807.20+27202106+27411488+27827790+27990572+27896760+27737120+27600518+27591960
2802.06+27805844+28117796+28352962+28591656+28948966+29257114+29327338+29233946
2796.92+29037640+28615540+28043750+27674184+27613056+27607032+27593888+27838882
2791.78+28392282+28901556+29076130+28985764+28843892+28752330+28663426+28485150
2786.63+28282166+28291574+28586710+28891784+28941248+28800826+28668010+28640508
2781.49+28806614+29221518+29663302+29792920+29605974+29415066+29425444+29634094
2776.35+30006560+30429438+30665726+30640732+30591952+30749164+31082102+31470422
2771.21+31855554+32119320+32088866+31788744+31511492+31555462+31951248+32472308
2766.06+32866940+33086714+33262498+33490898+33759716+34074048+34492224+35019760
2760.92+35592584+36145716+36572564+36757500+36785724+36933612+37297380+37658204
2755.78+37864316+38066828+38411776+38788312+39063912+39329232+39749608+40372688
2750.64+41163224+42027900+42767220+43198768+43393552+43639644+44146876+44843932
2745.49+45501816+45991380+46424360+47033584+47926752+48998600+50091144+51100476
2740.35+51911504+52435848+52803080+53333400+54214492+55323468+56428284+57412436
2735.21+58295448+59190744+60253464+61510864+62798628+64015516+65329600+66942576
2730.07+68757096+70485192+71983640+73311112+74544184+75740464+77037456+78633592
2724.92+80630992+82905672+85171024+87213368+89041960+90785480+92548088+94470832
2719.78+96747624+99383672+102096672+104662736+107154432+109669864+112113248
2715.28+114481040+117048592+119966808+122962656+125732624+128407280+131323624
2710.78+134544288+137867760+141169856+144518944+148034656+151763360+155648704
2706.28+159536864+163301360+166978624+170670944+174359712+177967456+181601520
2701.78+185488704+189597776+193606992+197373248+201182816+205381584+209934496
2697.28+214499936+218819984+222926976+227053744+231385488+235870928+240335872
2692.78+244750096+249198336+253597808+257755872+261766896+266030480+270767552
2688.28+275763808+280640096+285180192+289415104+293585856+297984576+302681280
2683.78+307482720+312221760+316894816+321520320+326085920+330665472+335345856
2679.28+340031744+344514176+348735712+352828160+356964000+361273824+365805280
2674.78+370468480+375116448+379736544+384446272+389268320+394032768+398533920
2670.28+402722080+406768032+410966688+415522752+420390624+425344640+430177536
2665.78+434761088+439013472+443004096+447025472+451355072+455934496+460483008
2661.28+464895264+469305088+473778112+478221024+482592480+486953568+491319584
2656.78+495686720+500163808+504828992+509523456+514003552+518233312+522359680
2652.28+526510272+530762208+535177280+539754176+544404672+549011136+553465152
2647.78+557745088+562006784+566434624+570977024+575425856+579740608+584070016
2643.29+588495552+592972672+597434880+601794816+606049152+610421568+615126976
2638.79+619988288+624627264+628979456+633249152+637486400+641618432+645743488
2634.29+650039040+654527680+659146112+663812416+668308544+672424576+676265856
2629.79+680165184+684324672+688756544+693383232+697966016+702200704+706095360
2625.29+709998400+714156480+718521792+722981440+727436608+731687040+735580992
2620.79+739260352+743042432+747113600+751423040+755781952+759988608+763992192
2616.29+767954304+772021760+776092672+779952128+783607936+787315520+791261696
2611.79+795361280+799429760+803437824+807466880+811503104+815478400+819438080
2607.29+823445440+827398016+831153600+834737088+838216768+841583936+844927104
2602.79+848437952+852058688+855492800+858728640+862134784+865852736+869525568
2598.29+872760320+875544320+878151296+880923584+884065216+887393984+890462400
2593.79+893137152+895846208+899051008+902670336+906177344+909125760+911530048
2589.29+913831680+916481152+919504320+922572800+925425280+928021824+930366592
2584.79+932515200+934733248+937311936+940150080+942750848+944744896+946339008
2580.29+948142144+950521600+953228480+955743296+957899264+959941952+962049984
2575.79+964121984+966075776+968020288+970026304+971956288+973680768+975306176
2571.29+977042688+978930176+980816128+982577152+984214720+985744448+987134912
2566.79+988437504+989823232+991389888+993040768+994614144+996035136+997340096
2562.29+998687360+1000257728+1001974912+1003484608+1004597888+1005560640
2558.43+1006677888+1007905088+1009038144+1010076416+1011170112+1012376448
2554.58+1013632448+1014824640+1015849216+1016733888+1017651200+1018699008
2550.72+1019788544+1020845504+1021921216+1023036288+1024121152+1025168256
2546.86+1026220544+1027210432+1028050816+1028838720+1029728256+1030661120
2543.00+1031449344+1032087296+1032783424+1033715712+1034871104+1036094976
2539.15+1037204096+1038083968+1038745792+1039317184+1039966464+1040797504
2535.29+1041756032+1042673152+1043460416+1044213184+1045056064+1045973632
2531.43+1046881728+1047785920+1048745536+1049732800+1050625280+1051344832
2527.58+1051964416+1052665152+1053553472+1054500544+1055223040+1055619072
2523.72+1055927552+1056471040+1057325056+1058346048+1059414336+1060479360
2519.86+1061444800+1062219456+1062874816+1063568064+1064296256+1064859520
2516.01+1065113728+1065200512+1065460672+1066106816+1066996800+1067798720
2512.15+1068360384+1068822464+1069372032+1070045632+1070790720+1071506752
2508.29+1072011328+1072189888+1072200320+1072326272+1072628928+1072983168
2504.44+1073335616+1073651328+1073741824+1073486976+1073138944+1073047168
2500.58+1073153088+1073077632+1072687360+1072293056+1072230400+1072422080
2496.72+1072458112+1072052864+1071333376+1070644096+1070159616+1069797248
2492.86+1069419392+1068919552+1068194688+1067254336+1066324992+1065654272
2489.01+1065223616+1064781760+1064123712+1063241216+1062251712+1061242112
2485.15+1060164864+1058929856+1057623616+1056468224+1055481984+1054403392
2481.29+1053076928+1051635520+1050174336+1048564480+1046764992+1045013056
2477.44+1043492416+1042070144+1040522880+1038794432+1036919360+1034945088
2473.58+1032983808+1031145216+1029364608+1027497408+1025567616+1023734208
2469.72+1022008960+1020177280+1018069440+1015791552+1013583296+1011478976
2465.87+1009259648+1006816768+1004394432+1002295872+1000460032+998572480
2462.01+996514048+994439616+992464768+990507712+988482048+986446528+984479040
2457.51+982496768+980277120+977709312+975010048+972544832+970413120+968421504
2453.01+966470848+964696896+963107392+961408320+959384128+957203264+955147584
2448.51+953223872+951236608+949151872+947208640+945614464+944230016+942692480
2444.01+940874816+939025728+937356224+935744384+934047168+932433408+931123456
2439.51+929990528+928711808+927203648+925676096+924337280+923192192+922088000
2435.01+920900096+919685312+918601664+917672512+916754304+915765184+914773568
2430.51+913807616+912783104+911675456+910542208+909378560+908162944+907033408
2426.01+906157632+905439872+904616320+903626752+902662464+901848768+901123136
2421.51+900390720+899626432+898861888+898223616+897872512+897735168+897437568
2417.01+896717824+895744768+894807360+893875008+892782592+891697984+891002624
2412.51+890722496+890421824+889767936+888902592+888108352+887349056+886375232
2408.01+885175872+884016640+883048896+882152576+881230400+880381440+879673920
2403.51+878980864+878152768+877171072+876049344+874813248+873612032+872620352
2399.01+871751616+870698688+869308416+867754176+866310016+865099648+864018304
2394.51+862796608+861214848+859338112+857469952+855855808+854535936+853442752
2390.01+852452672+851346432+849903552+848089792+846080960+844100608+842271552
2385.51+840583104+838940224+837265152+835538432+833734208+831810944+829815808
2381.01+827886784+826044928+824097408+821848768+819334720+816766784+814327872
2376.51+812071232+809938496+807806720+805563328+803198016+800792128+798392128
2372.01+795943808+793417536+790921344+788580992+786353152+784098304+781782400
2367.51+779426368+776920960+774135232+771195136+768405952+765872192+763432384
2363.01+760964864+758515712+756100224+753630848+751106688+748697216+746504704
2358.51+744368192+742035200+739518208+737128512+735076096+733190336+731214464
2354.02+729219520+727448192+725865408+724176256+722236032+720127296+717892160
2349.52+715483520+712927744+710292800+707543936+704615104+701541888+698406784
2345.02+695293824+692359168+689769792+687480448+685235776+682849792+680326144
2340.52+677697856+674931072+672046720+669220288+666671552+664469952+662440512
2336.02+660291776+657865280+655266624+652738816+650399936+648116032+645665920
2331.52+643045632+640516288+638278720+636207744+634039296+631699392+629283392
2327.02+626852800+624458944+622214080+620131136+618039232+615822016+613561088
2322.52+611333376+609071424+606742720+604415168+602084224+599670784+597240128
2318.02+594988672+592981440+591092096+589168448+587073664+584651520+581902080
2313.52+579151488+576809792+574926080+573123712+571005632+568529536+565964608
2309.02+563550720+561284736+559035200+556775680+554618240+552630784+550724608
2304.52+548723200+546487488+544015488+541486144+539176832+537203008+535349440
2300.02+533291936+530951968+528485920+525964256+523329088+520679680+518297760
2295.52+516252032+514231424+511944512+509471904+507076960+504862208+502751488
2291.02+500643488+498459360+496156000+493786944+491442336+489140992+486902592
2286.52+484823328+482911584+480949504+478749536+476445024+474302848+472328672
2282.02+470302592+468123744+465885312+463640160+461321664+458915872+456566176
2277.52+454465184+452667968+450993376+449162656+447117536+445096832+443269568
2273.02+441428992+439285056+436934016+434736672+432810464+430949376+429006848
2268.52+427058528+425163328+423223072+421143744+419007264+417001632+415224800
2264.02+413552672+411740288+409692608+407563712+405521728+403544288+401553504
2259.52+399578176+397645952+395698048+393744384+391911552+390206048+388456640
2255.02+386589440+384726432+382936736+381155264+379390080+377717088+376028480
2250.52+374098752+371941792+369809408+367849600+366011552+364259648+362611616
2246.02+361015520+359402560+357779232+356133408+354384640+352553984+350790112
2241.52+349142784+347499936+345805248+344107200+342389472+340587680+338775392
2237.02+337087552+335484256+333800768+332005600+330221888+328534816+326944992
2232.52+325448512+324020032+322552448+320944864+319258624+317699872+316378624
2228.02+315131360+313693408+312028576+310325568+308679552+306975040+305142336
2223.52+303299840+301593440+300057024+298666720+297378304+296093376+294732768
2219.02+293316160+291905536+290531776+289203808+287906944+286587008+285213920
2214.52+283804192+282340576+280809696+279336928+278066496+276900480+275600256
2210.02+274143552+272726816+271439616+270195360+268925440+267643488+266342080
2205.52+264967216+263469552+261872848+260322208+258982784+257811984+256588640
2201.02+255230736+253885696+252664992+251512672+250352592+249142592+247842528
2196.52+246526496+245370416+244389984+243387360+242276464+241181344+240135648
2192.02+238996256+237702272+236346608+234997504+233682944+232468288+231361856
2187.52+230257360+229094928+227918128+226746384+225559648+224389968+223259392
2183.02+222097328+220891136+219779952+218878640+218129712+217382688+216499024
2178.52+215414880+214239904+213175824+212248640+211276944+210175184+209062832
2174.02+208024336+207002320+205952752+204885168+203782336+202673776+201670704
2169.53+200783696+199872384+198891200+197968016+197163888+196378080+195557040
2165.03+194755472+193957504+193062416+192041216+190947040+189810688+188656928
2160.53+187555712+186562928+185691776+184976208+184416112+183836992+182978608
2156.03+181799760+180581392+179639696+179006688+178454496+177787536+177027920
2151.53+176288704+175571968+174806432+174012624+173272976+172556272+171713376
2147.03+170678576+169587984+168668176+168056624+167676496+167264352+166578128
2142.53+165602320+164522528+163542944+162768080+162158976+161548528+160804176
2138.03+160025488+159432784+159030096+158547888+157758752+156702864+155602432
2133.53+154710224+154173984+153894608+153586368+153094832+152514720+151895904
2129.03+151079632+150014992+148998320+148348560+148003648+147624752+146996048
2124.53+146178688+145346608+144617648+144019024+143526128+143089824+142642768
2120.03+142114992+141495168+140874144+140378832+140036976+139704752+139166640
2115.53+138355152+137477664+136850864+136559264+136338880+135853360+135026192
2111.03+134088072+133338024+132890984+132589016+132154480+131468264+130698896
2106.53+130111056+129811424+129702808+129605360+129341952+128793840+127996832
2102.03+127163672+126504136+126041392+125646880+125240296+124867224+124572552
2097.53+124272872+123832648+123250128+122686080+122255088+121881672+121440472
2093.03+120940760+120454792+119956080+119377696+118759240+118184360+117642192
2088.53+117103568+116664696+116446480+116397064+116338200+116142856+115775744
2084.03+115243800+114614904+113993624+113404776+112790176+112169208+111683880
2079.53+111412400+111232496+110938944+110455416+109918496+109543496+109385472
2075.03+109233240+108826472+108148368+107421328+106825616+106364792+106006880
2070.53+105787832+105690912+105558640+105253912+104846320+104496824+104195120
2066.03+103758200+103119776+102444608+101871664+101336664+100779544+100316104
2061.53+100032048+99792264+99478400+99242816+99270328+99419656+99355928
2057.03+98951792+98367352+97804824+97373544+97092640+96892528+96645528+96278256
2051.89+95789664+95189192+94521448+93923976+93538136+93353224+93243960+93110896
2046.75+92927760+92706776+92450200+92092040+91537112+90834504+90210272+89843672
2041.60+89696184+89608128+89433016+89084856+88618152+88236312+88036232+87867472
2036.46+87592264+87279576+86965328+86524080+85958792+85524472+85377520+85381488
2031.32+85331480+85120640+84724096+84294512+84150272+84348976+84480336+84163784
2026.18+83519432+82891784+82403488+82018376+81772584+81689464+81623320+81379432
2021.03+80936704+80485528+80215280+80053992+79725416+79166376+78710768+78666488
2015.89+78874664+78873184+78391184+77565864+76813040+76520688+76697008+76938824
2010.75+76897680+76657088+76475464+76342400+76049624+75587456+75207120+75102048
2005.61+75157240+75051192+74590344+73926504+73415840+73277192+73426456+73595472
2000.46+73552656+73263008+72896056+72628824+72451872+72253000+72023696+71838168
1995.32+71668568+71368464+70803760+69981696+69142968+68686328+68775320+69040432
1990.18+68966576+68525608+68139472+68078208+68234584+68445992+68669832+68800416
1985.04+68648416+68205312+67705576+67370400+67241400+67271408+67380248+67393528
1979.89+67126168+66624744+66193264+66064076+66144092+66182076+66102552+66007548
1974.75+65920404+65729548+65399744+65063612+64839548+64677904+64453032+64100116
1969.61+63620692+63044668+62451512+61973836+61738108+61787164+62039832+62295588
1964.46+62365388+62244680+62098336+62043016+62056388+62082880+62079324+61960220
1959.32+61678992+61380760+61292108+61406880+61465120+61274080+60905904+60534124
1954.18+60238144+60027740+59943436+60006048+60110948+60087656+59916108+59769692
1949.04+59773248+59796404+59591064+59090432+58509232+58137276+58060524+58039472
1943.89+57726844+57086204+56542528+56561612+57091104+57592700+57647412+57360912
1938.75+57120712+57102844+57162932+57153744+57141512+57233036+57352228+57359076
1933.61+57289820+57292024+57362140+57318084+57066260+56733240+56501060+56402476
1928.47+56335444+56211064+56027372+55847248+55751136+55727784+55567368+55025812
1923.32+54218892+53668304+53783732+54451536+55217604+55554164+54962380+53419140
1918.18+51873184+51594352+52668164+53857268+54217428+54035628+53991036+54199952
1913.04+54429296+54587304+54647184+54522780+54250784+54014492+53921280+53945228
1907.90+54027324+54079368+54004844+53816472+53639356+53576572+53661704+53867900
1902.75+54100500+54277540+54409260+54499312+54456916+54206060+53804256+53395928
1897.61+53167564+53241320+53447220+53415720+53123116+52976460+53136664+53259516
1892.47+53132756+52928352+52584908+51765060+50715264+50331836+51001544+52080168
1887.33+52827740+53177328+53388360+53520508+53464936+53192960+52860340+52743620
1882.18+52969008+53282716+53294692+52942632+52527408+52342592+52441468+52693560
1877.04+52939216+53130560+53348180+53616268+53788736+53722540+53489364+53281008
1871.90+53105040+52592720+51261016+49196392+47401516+47017516+48137108+49831452
1866.76+51257848+52180744+52612008+52616896+52492492+52602980+52958020+53261588
1861.61+53329740+53228256+53102964+53054608+53102964+53165608+53135076+53010772
1856.47+52917484+52989156+53241684+53568752+53865576+54104776+54240272+54173444
1851.33+53922136+53666588+53484840+53206880+52692704+52166584+52069800+52391904
1846.19+52146440+50043588+46307772+43445804+44000636+47451932+50946408+52733364
1841.04+53218484+53319112+53344148+53354532+53377004+53209448+52796972+52558660
1835.90+52785496+53144356+53191376+52920048+52599072+52380432+52032084+50959336
1830.76+48999332+47249320+47238240+49049664+51239424+52538152+52563660+51346052
1825.62+49446368+48237236+48774148+50524156+52129720+52969132+53304336+53463108
1820.47+53515012+53454680+53277708+53002708+52700524+52431948+52251532+52287908
1815.33+52575868+52859852+52872184+52681964+52430360+51979972+51260044+50719412
1810.19+50932868+51816068+52656568+52952164+52935560+53131172+53591228+53855804
1805.04+53614432+53000520+52215160+51314208+50460864+49861444+49370188+48738440
1799.90+48279872+48643896+49843524+51106452+51758104+51797032+51665488+51666948
1794.76+51349228+49584228+46001484+42333944+41213592+43202900+46350976+48866752
1789.62+50541840+51655360+52214796+52435484+52604928+52341856+51182088+49785004
1784.47+49377984+50122484+51072904+51445732+51101328+50315016+49726976+49895580
1779.33+50584764+51176472+51618876+52019632+51880260+50960440+50051396+49397856
1774.19+47424652+42963308+37961996+36073196+38523664+43084316+46848056+48218352
1769.05+47173472+45319840+45006160+47048680+49887292+51668292+52131800+51975452
1763.90+51291880+49466724+46546920+44123408+44176780+46768084+49779520+51331528
1758.76+51313844+50351472+48805824+47496256+47758192+49602636+51363016+51989612
1753.62+51826200+50709292+47722632+43744052+41811636+43323560+46097860+47711676
1748.48+48241376+48901236+50003236+51089004+51801308+51981920+51649132+51210144
1743.33+51355204+52457824+53788864+53558860+50761740+47150576+46033608+48353328
1738.19+51749196+53973080+54514836+52701012+47172248+38539184+30996240+29451990
1733.05+34686044+42753248+49047228+51625588+51564092+51247840+52089200+53688944
1727.91+54980832+55500732+55491684+55358916+55244492+55050016+54785280+54719160
1722.76+55050868+55591572+55929904+55725336+54563468+51626680+46236096+39557236
1717.62+35343492+36747208+41958200+46228548+47906904+49327164+52292548+55582280
1712.48+57542280+58233748+58271580+57905424+57738716+58458296+59578204+59860728
1707.34+58862880+57240264+56011348+55904592+56915528+58592616+60772784+62690028
1702.19+61463284+54223412+43040812+36015436+39838396+51675984+63003568+67797352
1697.05+64840288+57687072+53892208+59076592+70243520+80092376+85541600+88392056
1691.91+90864496+93273976+95554144+98373232+101913592+105481304+108947656
1687.41+112600440+114959872+113136840+106835280+100858952+101558976+109970504
1682.91+121536384+131874608+139336464+144238992+148033248+152228912+157162624
1678.41+162103408+166163760+168359712+167908288+166005968+166486752+172344208
1673.91+181650624+189637008+194075072+196484240+198869648+201028032+202072624
1669.41+203336336+207628320+215486288+224260768+231375856+236648064+241160656
1664.91+245178160+247925728+249264064+250967008+255500512+263101040+271275232
1660.41+277818016+282892256+287715456+292684864+297518528+301990720+305654944
1655.91+307558048+306484896+301251584+292088640+283446464+283578048+296119968
1651.41+314228512+328705568+336227520+338311840+337566720+335744416+333474560
1646.91+331111968+330259808+333493248+340936352+348769152+353358528+354881664
1642.41+355555904+356227072+356405920+356170464+355778784+354535456+351868416
1637.91+348185344+343194688+335491904+325995584+319738560+320464768+324858176
1633.41+326699968+323871744+318433984+312653376+307040928+301101664+294119872
1628.91+285606304+276099712+267146416+259878960+253925264+247748432+239757472
1624.41+229736832+219721152+212473328+208402448+205236880+201007120+195815024
1619.91+190703792+185774640+179440896+169767952+157630208+148297952+146875488
1615.41+151459568+155633280+156287216+154755328+152795600+150709760+148680576
1610.91+147178464+145996032+144600240+143113216+141873664+140784960+139802320
1606.41+139183344+138892912+138577824+138114816+137503264+136600656+135553728
1601.91+134906192+134844256+134977440+135000752+134879472+134545168+134102312
1597.41+133957840+134138048+134073448+133581616+133270128+133554656+134134744
1592.91+134717792+135374960+136036784+136426976+136548448+136688256+137091184
1588.41+137918336+139158992+140485104+141646816+142810464+144025168+144895984
1583.91+145310672+145779936+146627072+147696336+148978688+150499472+151834208
1579.41+152745504+153387696+152734096+148638304+141552096+136874048+140030080
1574.91+149138976+157606512+162107136+164022240+165483584+166337328+165095680
1570.41+161858624+159305280+160223120+164373904+169064816+172151568+173114240
1565.92+172387232+171074960+170596336+171510288+173053552+173841760+172091040
1561.42+165938256+155442000+144128928+136509728+134081072+136268336+143104784
1556.92+152930496+160633808+162101328+158583792+155393024+156440640+160676320
1552.42+164415744+165321072+163625952+161162768+159758032+159986560+161075008
1547.92+161788976+161161744+158637744+154386976+149865376+146927456+145252976
1543.42+142070416+135906304+129008192+124017256+119591440+113121608+106826504
1538.92+106670576+114015664+123198272+128742456+129753424+127690800+123473752
1534.42+117801624+112855344+111382224+113484320+116277576+117424640+117073688
1529.92+116051344+114303624+112027592+110323712+109408208+107998376+105660200
1525.42+103968272+104165568+105020904+104086528+100075424+93881472+88524928
1520.92+87707080+92581336+99938408+104865872+105021032+102311936+100780904
1516.42+102410696+105664328+108390288+109941976+110088984+108441008+105810152
1511.92+104063960+103706600+103402272+102149744+99882272+96046424+89753384
1507.42+81755360+75160072+73673440+78796368+88263288+97543832+103303832
1502.92+105356824+105643392+105887248+106214040+105634496+103789136+102032592
1498.42+101824496+102119576+100686240+98314016+98815112+103576712+109344768
1493.92+113014400+114713896+115446768+114873096+112728520+110601464+110722624
1489.42+113454368+116974208+119471496+121090080+123426448+127240960+131470944
1484.92+134845520+137375744+139693136+141917984+143874608+145773936+148017600
1480.42+150711440+153762448+157064704+160160000+162146592+162730800+163236192
1475.92+165414736+168862416+171075744+170733232+169607680+170663296+175127696
1471.42+182036416+189545088+195897264+200158416+202699056+204575120+206303840
1466.92+207464432+207312976+205853488+204701632+206103824+210120224+214226528
1462.42+216693056+218288912+219846208+220473984+219409328+217188992+213751728
1457.92+208249856+202519536+201763456+208469504+218459760+226250624+230301536
1453.42+231869584+232178400+231915248+231863184+232501024+233278608+233068640
1448.92+231443456+229358496+228463376+229478832+231402704+232659632+232705568
1444.42+232121760+231462128+230689408+229770064+229025040+228513376+227777904
1439.92+226581600+224970192+222089744+216424256+208561520+202547952+201983008
1435.42+205165184+207370256+206531200+203969600+201281584+198632800+195595072
1430.92+192024864+188233520+185062320+183190160+182020672+180270960+177657696
1426.42+174790080+171743280+168188320+164562800+161684288+159623792+157987824
1421.92+156309200+153267632+147314672+139463088+133850400+133383160+136067200
1417.42+138153808+138612096+138656080+139017344+139313248+139143680+138547120
1412.92+137730144+136915184+136218688+135519648+134767152+134298048+134449520
1408.42+135028224+135461728+135297968+134340784+132691568+131015168+130321872
1403.92+130903184+131797248+131876648+131051376+129817896+128129944+125699320
1399.42+123106064+121457912+120902472+120458080+119208936+116783696+113241920
1394.92+109524016+107367368+107505536+108549736+108705288+107741704+106512664
1390.42+105403200+103975152+101623656+98239824+94702488+92591680+92603880
1385.92+93632848+94191088+94002752+93561320+93061552+92499520+92057792+91704440
1380.78+91051048+90025032+89130360+88804744+88969096+89209808+89043944+88184496
1375.64+86886584+85878216+85740072+86476760+87696632+89006768+90265128+91542344
1370.50+92748624+93475216+93545496+93477824+93856168+94474944+94703112+94352768
1365.35+93582376+92366752+90757112+89303192+88528528+88292248+88251608+88526912
1360.21+89333656+90348496+90989072+91038240+90640264+89973416+89219760+88601360
1355.07+88215816+87952112+87661728+87294488+86870432+86474280+86252528+86271776
1349.93+86391464+86379672+86167352+85928984+85834288+85806480+85651816+85416992
1344.78+85397248+85710280+86111984+86287168+86065048+85333848+84151760+82988584
1339.64+82432232+82542656+82880008+83132512+83329504+83504192+83592600+83619008
1334.50+83640696+83567048+83300112+82973096+82845928+83016352+83314744+83444792
1329.36+83255856+82908888+82683680+82637456+82613912+82554664+82565576+82699424
1324.21+82889056+83049208+83113416+83051568+82889920+82626800+82188368+81616136
1319.07+81139536+80872184+80655624+80374848+80167760+80136680+80127520+79970088
1313.93+79711304+79529024+79555880+79745960+79834184+79614656+79302712+79319912
1308.79+79675168+79965384+80002760+79994344+80033200+79939264+79732344+79784072
1303.64+80304536+80994896+81407920+81440992+81320472+81262272+81332992+81535872
1298.50+81824992+82023952+81968208+81789680+81866496+82372880+83040152+83492168
1293.36+83672816+83831792+84210168+84820256+85432384+85752840+85736336+85713872
1288.22+86089632+86894520+87763104+88331896+88580616+88791072+89244240+89965200
1283.07+90763200+91511352+92285800+93171936+94058584+94745872+95186576+95512984
1277.93+95919656+96594488+97642112+98992912+100453640+101842264+102992424
1273.43+103778496+104342840+105163408+106598952+108448288+110199320+111604288
1268.93+112782376+113905512+115076640+116447496+118159504+120134904+122081144
1264.43+123790648+125349448+127000680+128874752+130943824+133178736+135584416
1259.93+138121440+140772064+143638320+146776560+150011520+153126528+156112720
1255.43+159071936+162067024+165229744+168743488+172541488+176316752+179960832
1250.93+183693712+187666880+191732800+195680736+199496384+203355680+207466656
1246.43+211832336+216182144+220319008+224461008+229017040+234110384+239569856
1241.93+245232192+251001408+256761200+262436096+268056208+273703104+279512256
1237.43+285632224+292003136+298305728+304302464+310080288+315867072+321797952
1232.93+327896480+334096384+340275392+346396288+352529600+358704736+364922592
1228.43+371281536+377782208+384102912+389919488+395354304+400767744+406288736
1223.93+411882816+417635264+423572256+429404992+434769792+439580576+443987680
1219.43+448173280+452276672+456353120+460350336+464211616+467914784+471336768
1214.93+474250784+476582144+478518464+480323584+482127744+483882016+485401344
1210.43+486523776+487296480+487868544+488154688+487831712+486761152+485162496
1205.93+483329984+481351456+479145984+476580000+473574976+470256544+466899584
1201.43+463534528+459780384+455289664+450220928+445059520+440052864+434999872
1196.94+429561024+423661664+417574144+411598528+405728096+399777920+393780864
1192.44+388000768+382514208+377049504+371333376+365373568+359348576+353422880
1187.94+347708992+342239392+336922272+331595872+326191360+320854912+315896000
1183.44+311488832+307441664+303432480+299420384+295571520+291864064+288121472
1178.94+284385120+280920288+277893472+275275904+272938496+270672352+268330128
1174.44+266042992+264056912+262316624+260517312+258525088+256463168+254483120
1169.94+252705792+251253808+250118992+249106464+247972192+246548992+244900784
1165.44+243476400+242786960+242741440+242684480+242217232+241517920+240817184
1160.94+240171056+239765264+239793936+239980864+239823040+239306848+238871488
1156.44+238770304+238933808+239302416+239850928+240403216+240791968+241097184
1151.94+241557344+242381856+243729936+245643824+247887088+250037568+251844464
1147.44+253437120+255175376+257363760+260036896+262944624+265790000+268523712
1142.94+271356640+274488448+277932832+281618944+285497088+289517664+293650496
1138.44+297944032+302461408+307183232+312073216+317189088+322622144+328380480
1133.94+334373184+340450592+346488768+352588736+359108992+366327008+374114432
1129.44+382117760+390142304+398211008+406401856+414786016+423392128+432164768
1124.94+441065856+450189632+459652992+469445440+479489888+489690848+499923712
1120.44+510198304+520763008+531755552+542909568+553940800+564962752+576118848
1115.94+587132480+597683712+607964864+618410688+629091456+639714944+650076160
1111.44+660275648+670574784+681054656+691366592+700955008+709651840+717900160
1106.94+726323648+735186880+744202048+752699520+760162560+766794624+773375936
1102.44+780398656+787596928+794398976+800550464+806255552+811939392+817832960
1097.94+823647680+828906688+833662336+838469440+843543680+848513280+853158656
1093.44+857750016+862475200+867075712+871312128+875349824+879516096+883896640
1088.94+888200384+891950080+894941184+897509184+900130624+902843904+905328448
1084.44+907385472+909028032+910293568+911267712+912088640+912737856+913005952
1079.94+912681472+911554048+909361664+906131456+902409024+898690048+894730048
1075.44+889913152+884268416+878616704+873502528+868264192+861550592+852818560
1070.94+843052992+833741824+825281280+816688064+806742272+795085248+782226240
1066.44+768905152+755656384+742693888+729892608+716880192+703360640+689386944
1061.94+675211392+660952448+646616320+632303808+618134912+604150144+590572992
1057.44+577797760+565735040+553646720+541136448+528756800+517093088+505877152
1052.94+494567936+483183936+472036704+461260352+450970144+441273216+431917696
1048.44+422560768+413355936+404647264+396246624+387735200+379266976+371351904
1043.94+363991808+356671488+349140224+341741856+334952160+328847616+323142624
1039.44+317639392+312408352+307447040+302478688+297323104+292135808+287034848
1034.94+281937184+276986816+272600000+268847264+265308352+261717968+258163968
1030.44+254595616+250841888+247203920+244324544+242306528+240517216+238412864
1025.94+236100464+234000608+232332032+231022336+229886000+228765024+227589024
1021.44+226385808+225268896+224394752+223865632+223625680+223522464+223525520
1016.94+223708832+223963024+224007984+223902224+224213408+225360080+227069200
1012.45+228837280+230585552+232452384+234347328+236239392+238554496+241759632
1007.95+245794304+250320944+255197904+260418816+265952096+271929568+278667360
1003.45+286308384+294710560+303725440+313284480+323236576+333411904+343854432
998.95+354808736+366472704+378787008+391410880+403988896+416568768+429552576
994.45+443081248+456718912+469941984+482582624+494553888+505468352+514800608
989.95+522204128+527482720+530493920+531206592+529676864+525891360+519799968
985.45+511565280+501620480+490361536+477864416+464088896+449397984+434688160
980.95+420757088+407619872+394705632+381664480+368675072+356036320+343856864
976.45+332200864+321131328+310534816+300259488+290426688+281241856+272599200
971.95+264328928+256686704+250035040+244169984+238522608+232910400+227589712
967.45+222720736+218256528+214168944+210428864+206949696+203727280+200772240
962.95+197879248+194882384+192105248+190069888+188764240+187615792+186163104
958.45+184426528+182740912+181464016+180725616+180302176+179833824+179156128
953.95+178328512+177509392+176970608+176956576+177338496+177659120+177674864
949.45+177552672+177461296+177332512+177125504+176964768+176911760+176886016
944.95+176843280+176839632+176935520+177172528+177547616+177885824+177942768
940.45+177772976+177754912+178073808+178420432+178398576+178029840+177654048
935.95+177526528+177706704+178171184+178813680+179461952+180045664+180673040
931.45+181397456+181999824+182159408+181853296+181493328+181575104+182174656
926.95+182911872+183470784+184019808+184910592+186026544+186740384+186680176
922.45+186328096+186557184+187585888+188717184+189257840+189377216+189751568
917.95+190593136+191451136+191922336+192145168+192503952+193123712+193824896
913.45+194456992+195138992+196077904+197195136+198056912+198307728+198102080
908.95+197998208+198396256+199158944+199832688+200212272+200550576+201154416
904.45+201922112+202446208+202512304+202314768+202205536+202316864+202484784
899.95+202539152+202614688+202992992+203659840+204322880+204919568+205710048
895.45+206713472+207471152+207599024+207266416+206918688+206768080+206720032
890.95+206631184+206535952+206619024+206939280+207216544+207039376+206309792
886.45+205356032+204603872+204209584+204012672+203807600+203604144+203564256
881.95+203721072+203908384+203952352+203757968+203262736+202537952+201839616
877.45+201315536+200824192+200263952+199855808+199792080+199825728+199481792
872.95+198535488+197145648+195706288+194663040+194299168+194553984+195055712
868.45+195346032+195134512+194441008+193502416+192563664+191850736+191593536
863.95+191780576+192031664+192057040+192098320+192455376+192793632+192455376
859.45+191327968+190009344+189282176+189641712+190921280+192145696+192217712
854.95+190986016+189286080+188034896+187885328+189318240+191912144+193768288
850.45+193092272+190478000+188403120+188379760+189786480+191296416+192063488
845.95+191666576+190329792+189276960+189602768+190818176+191638448+191996992
841.45+193139808+195708240+198774144+200844848+201054304+199334480+196329792
836.95+193502960+192462048+193311552+194196160+193438912+191667616+190722640
832.45+190860400+190400960+188172256+185007520+182585840+181737504+182072368
827.96+182544000+182186240+180797472+179124928+178235024+178494800+179120368
823.46+178883760+177402816+175507824+174149376+173430944+173030064+172849952
818.96+172771120+172410176+171533120+170148880+168143696+165563168+163120192
814.46+161551616+160744640+160292848+160313824+160763072+160664736+159234464
809.96+157294224+156394720+156828032+157481440+157518752+157231072+157045024
805.46+156681648+155940944+155512304+156115808+157249216+157730960+157111408
800.96+155904656+154893104
##END=
