##TITLE=octarelline 6 front
##JCAMP-DX=4.24
##DATA TYPE=INFRARED SPECTRUM
##DATE=31/1/2005
##TIME=16:52:5
##SAMPLING PROCEDURE=film
##ORIGIN=Vincent
##DATA PROCESSING=no operation
##XUNITS=1/CM
##YUNITS=ABSORBANCE
##RESOLUTION=2
##FIRSTX=4000.283
##LASTX=800.31372
##DELTAX=-0.64282227
##MAXY=0.20955063
##MINY=-0.00098286441
##XFACTOR=1
##YFACTOR=1.9515924e-010
##NPOINTS=4979
##FIRSTY=0.0024734454
##XYDATA=(X++(Y..Y))
4000.28+12673986+12706401+12735217+12809922+12900640+12948669+13011776+13155737
3995.14+13200969+12841940+12150461+11653993+11705062+12022566+12117787+11904547
3990.00+11648794+11590526+11780400+12046038+12059240+11737996+11455062+11498928
3984.86+11603193+11435598+11176833+11168168+11401866+11737330+12123655+12300103
3979.71+11888677+11025800+10365400+10293575+10624205+11047126+11408000+11609992
3974.57+11639994+11640926+11728263+11858675+11928551+11850540+11619726+11473596
3969.43+11769998+12532456+13331467+13717668+13521223+12796049+11832538+11140971
3964.28+11050859+11355873+11603326+11657461+11777866+12240351+12981890+13586747
3959.14+13638394+13091160+12249554+11476264+11039530+11022467+11231089+11390535
3954.00+11538660+11896278+12331713+12393201+11912813+11173766+10565298+10391385
3948.86+10748021+11250819+11298811+10881974+10621939+10752286+10780542+10378060
3943.71+9919159+9831760+10036273+10282114+10525052+10763749+10881307+10834523
3938.57+10827059+11100180+11569726+11826004+11650127+11349739+11247086+11080851
3933.43+10492002+9875460+9997901+10848385+11648259+11904280+11791468+11646260
3928.29+11649193+11835072+12001229+11852540+11439597+11123776+11063523+11148972
3923.14+11326143+11509329+11377870+10778410+10084774+9752890+9781001+9874527
3918.00+9840552+9701734+9722516+10199365+10982078+11548393+11799468+12154861
3912.86+12656778+12775503+12333713+11745863+11215758+10609812+10134606+10178045
3907.72+10524917+10585955+10212556+9556529+8584434+7435753+6687414+6567016
3902.57+6589232+6484006+6670251+7347786+7981332+8136685+8110992+8372464+8983262
3896.79+9777270+10592220+11205626+11478529+11540794+11477330+10967015+9737703
3891.65+8367538+8036842+9218732+11074188+12442018+12890634+12469762+11063124
3886.50+8746487+6595485+6243373+8172896+11051659+13118778+13655075+13004570
3881.36+11807603+10664855+10171516+10642464+11764398+12923587+13799882+14359171
3876.22+14426857+13695647+12260758+10889839+10532914+11436932+12678255+12757761
3871.08+10931425+8068658+6088551+6326241+8455413+11078853+12920385+13317056
3865.93+12223547+10353406+9126698+9617673+11272282+12430547+12369060+12054038
3860.79+12535124+13495735+14026785+13919202+13554452+13307048+13318657+12955873
3855.65+10668186+5753008+311196-2180332-886655+1989697+4893967+8037908+11313344
3849.86+13702721+14720181+14871598+14786008+14783738+14955857+15004465+14420583
3844.72+13272623+12342384+12189404+12508846+12628098+12306505+11858140+11495328
3839.58+10660057+8579374+5781599+4356055+5685188+8529841+10669520+11447596
3834.43+11655726+11823603+11699194+11132974+10604081+10721498+11567193+12675987
3829.29+13555519+14014904+14006095+13532967+12964145+12969748+13743426+14642608
3824.15+14915532+14265457+12576340+9957931+7436818+6578856+7767025+9729043
3819.01+11176433+11698662+10996474+8810272+6128053+5169552+7091358+10534513
3813.86+13340140+14627254+14782670+14475585+14142112+13965917+13932016+13836585
3808.72+13205240+11543726+9172381+7595194+8137750+10236408+12166598+13044863
3803.58+12912915+11481996+8427585+5086993+4174919+6717481+10600349+13156939
3798.44+13671892+12945867+11859742+11078853+11201228+12285832+13583145+14257982
3793.29+14169210+13791474+13652406+13900517+14146251+13801483+12800852+11824138
3788.15+11555859+11966823+12523385+12803919+12745221+12528320+12384531+12395203
3783.01+12487771+12629298+12768567+12635035+12013364+11225357+10871844+11109380
3777.87+11612524+12112318+12513248+12716407+12749357+12815259+12966012+13025783
3772.72+12910780+12589412+11802402+10417638+9069296+8847426+10070784+11754930
3767.58+12511114+11827871+10451755+9569317+9685215+10444691+11331743+12075910
3762.44+12469363+12329178+11654660+10614609+9568385+9067830+9329947+9770210
3757.30+9693874+9292920+9300912+9931150+10589687+10221351+7896406+4030872
3752.15+1066816+1105433+2769261+3080579+1938984+2043996+4631441+7878036+9585035
3746.37+8684434+4784699-1013935-5036217-3797696+1560131+6785732+9487394
3741.23+10101696+9821767+9386158+9132025+8940247+8330525+7136334+5786387
3736.08+4815007+4540927+5079149+6034153+6465382+5924697+5267006+5745959+7390106
3730.30+9011895+9754356+9856008+9953267+10169118+10120616+9589431+8919605
3725.16+8656870+8874459+9071693+8789099+8221222+8043631+8611598+9480600+9879590
3719.37+9556662+9001375+8906153+9523759+10463616+11000873+10723097+9902506
3714.23+9012961+7961231+6399269+4832553+4475136+5537319+6745686+7150439+7309726
3708.44+8158918+9596094+10834390+11436798+11468529+11152304+10737892+10301570
3703.30+9566120+8327197+7071665+6691404+7490851+8859678+9966191+10443892
3698.16+10424701+10253732+10268124+10576227+10851185+10567297+9683350+8806676
3693.01+8331723+7836505+6908004+6038542+5748088+5309419+3712645+1700434+1475581
3687.23+3939319+7525987+10209359+11313878+11270016+10704306+10129944+9968988
3682.09+10344078+10884639+10975946+10333019+9312899+8539162+8120976+7367216
3676.94+5483865+2636858+271796+73484+2439530+6154123+9365778+10570229+9283064
3671.16+6508084+4284290+3981706+5216085+6964818+8903357+10992742+12683590
3666.02+13354819+13087024+12512715+12136324+12047638+12075111+12142858+12451890
3660.87+13108372+13743962+13960045+13901718+13735953+13024182+11517061+10126479
3655.73+10065187+11298279+12836737+14023182+14585998+14143181+12569137+10398315
3650.59+8370999+7013251+6788925+7903860+9753023+11370538+12522719+13741825
3645.45+15343275+16997070+18217294+18839496+19027448+19071460+19175546+19321650
3640.30+19350682+19158688+18790938+18452138+18459358+19038820+20046008+20953500
3635.16+21240186+20848260+20319328+20369658+21148994+21921636+21612896+19697248
3630.02+16676718+13931349+12997900+14523115+17744740+21197334+23809440+25289896
3624.87+25857852+25907232+25758686+25523072+25203234+24872172+24566776+24122908
3619.73+23498290+23152336+23654460+24926094+26281128+27139874+27422928+27371498
3614.59+27250646+27140814+26970434+26891360+27337122+28288428+28890340+28452326
3609.45+27491416+27165118+27877260+29084248+30235018+31237738+32195962+33134808
3604.30+33872704+34093044+33745712+33309162+33324376+33766852+34184096+34299260
3599.16+34284576+34543892+35260288+36071412+36401716+36252868+36284552+36969816
3594.02+38120220+39356268+40454012+41186364+41382428+41163528+40670816+39817500
3588.88+38736540+38067868+38305620+39238408+40424160+41701764+42973880+43987776
3583.73+44597600+44923216+45149116+45384248+45712012+46195956+46808832+47364012
3578.59+47617808+47613472+47790044+48438328+49220240+49677688+49970000+50532888
3573.45+51298704+51879584+52255284+52688096+53181308+53474760+53395276+52989088
3568.31+52508824+52304304+52469576+52762932+53087572+53678432+54591584+55492336
3563.16+56207068+56985592+57973076+58935388+59708052+60438320+61182740+61646876
3558.02+61610472+61380440+61557968+62356368+63317992+63798548+63647044+63272272
3552.88+63163376+63546588+64397172+65492312+66489452+67164672+67548440+67761064
3547.74+67866904+68007208+68462928+69397640+70606280+71675296+72401424+72917120
3542.59+73413328+73901824+74366440+74952952+75743552+76467568+76773848+76752024
3537.45+76892200+77520312+78495672+79450408+80171376+80729432+81288608+81830304
3532.31+82193216+82412880+82796112+83528632+84431392+85170512+85504608+85366344
3527.17+85008856+84939960+85406040+86177064+87099520+88380192+89924272+90970024
3522.02+91003736+90630552+90937128+92216840+93724296+94538344+94432328+93996856
3516.88+94000736+94629960+95507744+96381864+97338896+98320608+99023168+99447976
3511.74+99971224+100692064+101284600+101650968+102136392+102931016+103770952
3507.24+104393200+104851424+105290704+105779440+106372352+107054632+107668912
3502.74+108145360+108629280+109231320+109915440+110779768+111978600+113215192
3498.24+113866624+113899584+114088200+114946456+115973688+116422288+116405104
3493.74+116700448+117649760+118743728+119345144+119495872+119762224+120433640
3489.24+121228384+121840976+122411840+123281592+124547208+126009080+127230760
3484.74+127657880+127121624+126241824+125869704+126195216+126830376+127572480
3480.24+128522104+129667112+130810904+131715736+132083640+131833808+131494672
3475.74+131780344+132728648+133837664+134858592+135734752+136148720+135994032
3471.24+135944976+136677424+137915264+138966016+139715584+140463264+141305040
3466.74+142176976+142999728+143521568+143560208+143444752+143663056+144130288
3462.24+144393664+144419152+144618848+145238208+146127408+146950944+147445648
3457.74+147678640+148053168+148821808+149738976+150451568+150924192+151216352
3453.24+151267168+151172192+151240896+151580512+152028400+152518000+153030416
3448.74+153296816+153124464+152917168+153320992+154380336+155467632+156010336
3444.24+156019872+156000512+156458240+157366464+158153840+158342544+158098464
3439.74+158032656+158606176+159726896+160746512+160971344+160434000+159924416
3435.24+160120816+161018848+162244336+163314784+163605840+162897744+161989264
3430.74+161881984+162465344+162901024+163045888+163440560+164183952+164804768
3426.24+164994896+164729216+164128976+163769600+164439984+166051664+167450400
3421.74+167716528+167081024+166444560+166533504+167447104+168540800+168955456
3417.24+168587296+168139792+168038224+167981872+167741568+167639744+168031072
3412.74+168876048+169892272+170611488+170496928+169558736+168634656+168546400
3408.24+169175856+169777024+169988320+170159712+170706448+171471232+171888448
3403.74+171737568+171439712+171469776+171769232+171978560+171942896+171690272
3399.24+171219360+170589152+170037600+169807088+170010672+170624384+171361040
3394.74+171704736+171449584+171083712+171248160+171904336+172436320+172473296
3390.24+172230208+172068976+172076288+172146240+172186656+172113856+171834272
3385.74+171403600+171094032+171135280+171451008+171758176+171855616+171721088
3381.25+171463888+171295856+171471232+172119872+173093824+173998832+174453968
3376.75+174447664+174390704+174670032+175161744+175419792+175322336+175249424
3372.25+175548672+176130912+176694896+177086960+177276560+177200880+176878288
3367.75+176516400+176216320+175697088+174741328+173815824+173669104+174287584
3363.25+174906608+175187008+175603632+176437168+177204880+177461568+177381984
3358.75+177174880+176695760+176042320+175838624+176427392+177274144+177662400
3354.25+177604224+177649488+177986832+178175056+177871744+177476960+177693168
3349.75+178520096+179184624+179145360+178690992+178323648+178064128+177672336
3345.25+177126160+176539248+175960768+175543808+175556704+176007440+176541392
3340.75+176909584+177234752+177674480+178142304+178467232+178574432+178482432
3336.25+178407008+178710544+179401408+179881520+179689440+179240560+179249744
3331.75+179680944+179921216+179747952+179453888+179208480+178973424+178901424
3327.25+179178160+179595808+179783472+179738464+179726384+179823312+179951872
3322.75+180219216+180833760+181683312+182299984+182340576+181935904+181471040
3318.25+181207264+181213152+181461664+181766640+181870992+181845392+182128512
3313.75+182932080+183944768+184836752+185586080+186097664+186064784+185473456
3309.25+184746688+184231504+184033952+184306448+185112048+186110336+186896992
3304.75+187423040+187665472+187411792+186813040+186513168+186731264+186908256
3300.25+186661712+186312240+186161952+186060464+185992240+186305152+187029008
3295.75+187606592+187543984+186887488+186062320+185576832+185748400+186347440
3291.25+186731424+186596384+186342672+186457216+186866432+187092784+186811456
3286.75+186091024+185264128+184614816+184129920+183610992+183045808+182626656
3282.25+182389664+182112400+181655120+181190864+181029568+181263376+181531040
3277.75+181212736+180120000+178857152+178090288+177636976+176864640+175716896
3273.25+174646080+173836912+173242096+173014560+173127104+172990192+172200544
3268.75+171193712+170486032+169831296+168800656+167596976+166612976+165718528
3264.25+164601536+163400000+162528144+162097808+161782272+161160016+160160864
3259.75+159151936+158388128+157503552+156022992+154285504+153247248+153314464
3255.25+153877536+154033744+153370032+152102528+150795456+149874592+149204032
3250.75+148337840+147254752+146457040+146196672+146027968+145412784+144457776
3246.25+143756720+143627408+143756848+143623168+143125616+142650528+142494128
3241.75+142431760+142026800+141204672+140291312+139569824+139013472+138415328
3237.25+137635744+136793664+136273664+136347424+136697600+136556704+135514432
3232.75+133960632+132627280+131922480+131806920+131959784+131923320+131450760
3228.25+130857880+130709200+131046680+131276008+130938776+130208064+129525256
3223.75+129076256+128751728+128368648+127800056+127044112+126215160+125401104
3219.25+124581720+123812568+123366688+123487408+123957144+124133152+123581896
3214.75+122594448+121850776+121642880+121695552+121641472+121335536+120802624
3210.25+120257368+120088808+120402840+120711872+120460960+119708616+118931216
3205.75+118413416+118144152+117990168+117657456+116844272+115699552+114776336
3201.25+114371080+114309784+114453464+114883328+115406584+115369704+114284920
3196.76+112465592+110827296+110088256+110228608+110705728+111053992+111163728
3192.26+111099176+110964640+110929912+111093456+111257160+111042840+110223448
3187.76+108855616+107280384+106110376+105865256+106362056+106787560+106603336
3183.26+106113856+105932584+106162544+106356904+106185360+105864984+105824648
3178.76+106023296+105859000+104941816+103729800+103101200+103391864+104100040
3174.26+104477720+104220824+103623776+103200544+103162456+103286400+103242640
3169.76+102890728+102276656+101581536+101076384+100937440+101138704+101586688
3165.26+102134312+102415960+102153480+101774528+102110984+103260832+104338856
3160.76+104593672+104170240+103584728+103046320+102482208+101768008+100842512
3156.26+99882704+99294568+99321344+99780744+100270776+100413000+100045304
3151.76+99493888+99432856+100000080+100388432+99824584+98628936+97754368
3147.26+97577656+97678280+97538720+97018128+96338912+95917200+96011640+96328672
3142.12+96228944+95483376+94553016+93964624+93721400+93550128+93373344+93203344
3136.97+92880272+92336024+91883952+91804464+91848440+91569776+90952736+90320544
3131.83+89857160+89582352+89548512+89700280+89688952+89146720+88132744+87198560
3126.69+86921032+87256352+87480520+87019512+86153632+85475368+84988328+84343912
3121.54+83680528+83487456+83863304+84526600+85252512+85781520+85672896+84803120
3116.40+83703256+83063064+83118552+83618704+84097464+84143328+83642528+82781520
3111.26+81815576+80996552+80603728+80680752+80868640+80815400+80565496+80258408
3106.12+79804816+79133720+78469288+78111520+78116600+78228304+78074152+77590640
3100.97+77293440+77742832+78708928+79330672+79114200+78331336+77565232+77274496
3095.83+77587752+78099160+78137752+77527184+76742000+76201816+75885304+75707872
3090.69+75696336+75723784+75581336+75372088+75425600+75803792+76169280+76169144
3085.55+75801320+75386640+75201952+75160936+74990952+74650616+74366296+74267272
3080.40+74255760+74229560+74197192+74187192+74216952+74309240+74421704+74413608
3075.26+74161264+73668040+73061720+72528040+72185064+71980792+71758720+71436696
3070.12+71097720+70909432+70945592+71020624+70855472+70507016+70362304+70512904
3064.98+70514416+70061416+69476728+69228368+69351112+69601128+69766592+69656424
3059.83+69214000+68714896+68469768+68413960+68342152+68303992+68352272+68207848
3054.69+67596712+66694320+65890272+65363368+65092656+65039932+65163672+65366368
3049.55+65487532+65367868+65027096+64682276+64408096+63991428+63373396+62935640
3044.41+62967836+63201316+63249760+63185488+63333680+63770292+64240432+64343376
3039.26+63799364+62789916+61920044+61532332+61322080+60964340+60734640+61024868
3034.12+61600924+61858124+61653828+61414516+61515564+61867396+62126388+62062700
3028.98+61661468+61010688+60303940+59833404+59750016+59854252+59848664+59735844
3023.84+59734484+59892404+60046928+60076088+60003320+59927696+59943500+59993920
3018.69+59874280+59551508+59294444+59254944+59269656+59284776+59492928+59782988
3013.55+59700288+59256444+59079364+59426720+59758060+59635164+59352616+59335448
3008.41+59461868+59345660+58946420+58640956+58811728+59426044+60024444+60180068
3003.27+59934512+59625760+59443204+59371552+59463096+59843352+60462852+61080488
2998.12+61585652+62163904+63007272+63898600+64343376+64137224+63595724+63158328
2992.98+63041524+63296160+63847964+64387208+64571808+64392124+64116472+64019960
2987.84+64362084+65302304+66562160+67534352+67990936+68263096+68610528+68913680
2982.70+69090584+69304448+69657920+70131768+70781952+71621608+72455008+73131344
2977.55+73773208+74483008+75086160+75409816+75588344+75922920+76574784+77466632
2972.41+78405120+79292192+80203264+81173328+82017056+82529608+82744488+82838928
2967.27+82971928+83344928+84136168+85183464+86038776+86488824+86726704+86908208
2962.13+86937448+86836352+86911096+87369064+88048840+88686888+89159696+89325096
2956.98+88963928+88097152+87147232+86530336+86238000+85989688+85615696+85088504
2951.84+84374488+83544336+82866056+82523560+82396904+82330296+82392920+82637248
2946.70+82823240+82715864+82478128+82466280+82753848+83133704+83468584+83800488
2941.55+84180800+84570272+84874912+85004304+84955248+84866096+84939824+85279536
2936.41+85780144+86165616+86214840+86040024+86000312+86191552+86278944+86027744
2931.27+85670008+85435136+85096224+84420784+83740448+83576280+83905040+84245264
2926.13+84277504+84023496+83591280+83038832+82414536+81772656+81185840+80726000
2920.98+80355632+79887304+79178656+78336560+77649696+77299888+77169992+76995728
2915.84+76703152+76437912+76150752+75483640+74329400+73157816+72450208+72117656
2910.70+71824072+71502840+71208240+70799464+70125072+69315120+68651288+68279776
2905.56+68067384+67652904+66813508+65818264+65180748+65052224+65207240+65479472
2900.41+65734252+65650776+65110268+64608264+64701532+65219124+65488076+65139496
2895.27+64382016+63693040+63395644+63338188+63042888+62342044+61620832+61234684
2890.13+61115116+61149468+61407708+61789116+62002828+62011420+62005552+61978136
2884.99+61831252+61711792+61732656+61654788+61316488+61024044+61103388+61456112
2879.84+61858940+62268792+62590184+62601100+62299216+61973224+61818028+61749020
2874.70+61628464+61461564+61353164+61372116+61400212+61142244+60400712+59329456
2869.56+58327616+57665144+57225244+56628132+55728972+54951568+54815348+55166668
2864.42+55318412+54973320+54469792+54079716+53693920+53301948+53129824+53156176
2859.27+53018836+52548752+51948148+51409060+50922344+50470064+50133468+50000652
2854.13+50109724+50393272+50617556+50554736+50270220+50012184+49814820+49459052
2848.99+48892636+48406204+48218464+48134836+47869596+47512248+47323772+47215380
2843.85+46843372+46193388+45627664+45319948+45049500+44606120+44061636+43597768
2838.70+43340920+43337536+43473464+43489424+43250976+42851100+42395320+41920176
2833.56+41571756+41529728+41699060+41792584+41743524+41733256+41826380+41864760
2828.42+41712440+41347296+40770780+40094876+39652900+39733784+40188200+40561940
2823.28+40656496+40665004+40721608+40628256+40221964+39718520+39458876+39492764
2818.13+39617520+39669776+39628056+39557844+39574048+39709204+39765916+39450504
2812.99+38742344+38000944+37649220+37809624+38236936+38569588+38605896+38395364
2807.85+38115632+37917288+37850372+37855496+37826628+37724092+37584468+37432580
2802.71+37270312+37106704+36921940+36675428+36461444+36514032+36906972+37384960
2797.56+37577856+37283260+36563108+35760160+35317292+35344640+35493700+35462164
2792.42+35388980+35524700+35833220+36142456+36384728+36459152+36181416+35592760
2787.28+35087664+35051960+35467824+35952780+36157420+36059144+35862064+35720396
2782.13+35724980+36011696+36580500+37092004+37210288+37014592+36768340+36519424
2776.99+36282396+36245452+36426248+36526436+36456320+36528456+36884180+37250884
2771.85+37452404+37631276+37808140+37758764+37427180+37050060+36829968+36755396
2766.71+36706848+36565132+36354392+36310708+36635252+37183044+37638160+37918100
2761.56+38171900+38466748+38697668+38782292+38802812+38949392+39309828+39729596
2756.42+39991568+40112708+40273428+40480080+40563016+40482644+40369588+40323268
2751.28+40414972+40803880+41550940+42397216+42956300+43111952+43081932+43168484
2746.14+43487804+43894152+44154316+44238472+44346720+44618848+44997248+45455320
2740.99+46098596+46876968+47492872+47787604+48008512+48491744+49266612+50135228
2735.85+50962376+51723324+52407784+53042204+53696636+54382256+55050820+55735500
2730.71+56559292+57522500+58442400+59200180+59919248+60775936+61754752+62737664
2725.57+63751868+64963320+66408828+67894792+69233296+70466768+71756264+73130112
2720.42+74469160+75723368+77025392+78561072+80371584+82274000+83976936+85372008
2715.28+86745336+88556440+90911152+93400040+95579744+97461808+99362952
2710.78+101461184+103693952+105954144+108209816+110541800+113128392+116038808
2706.28+119017256+121727208+124189392+126672832+129259560+131886024+134694400
2701.78+137840624+141043456+143867104+146384496+149060624+152071024+155182176
2697.28+158243584+161381776+164735360+168263520+171781280+175092880+178245600
2692.78+181582992+185291232+189012304+192295904+195292416+198530576+202118176
2688.28+205657840+208941056+212258000+215931808+219885184+223801296+227514496
2683.78+231137968+234895728+238863312+242856800+246600912+250062976+253559136
2679.28+257396960+261439808+265207888+268456448+271470432+274702784+278300512
2674.78+282114208+285996000+289906912+293815552+297649056+301359296+304968416
2670.28+308535616+312117696+315777632+319598368+323602528+327652320+331553856
2665.78+335256064+338825856+342296704+345729856+349346816+353284896+357286944
2661.28+360963744+364334464+367774432+371478368+375286560+379034304+382772672
2656.78+386602176+390485472+394280640+397898336+401398560+404926944+408574464
2652.28+412324512+416120480+419927520+423767072+427728768+431846944+435925664
2647.78+439673888+443076224+446422816+449898016+453412096+456909792+460551040
2643.29+464460640+468548384+472658944+476698656+480588544+484256384+487776832
2638.79+491391200+495307680+499472928+503594464+507426240+511005088+514535776
2634.29+518135904+521817088+525598560+529455296+533269696+537012096+540826944
2629.79+544792000+548782208+552683584+556500544+560165632+563575744+566905408
2625.29+570520896+574504256+578580800+582524864+586292416+589805312+593017792
2620.79+596167232+599588672+603317312+607141568+610953792+614751872+618471424
2616.29+622086912+625721984+629434112+633069312+636532800+639979520+643557696
2611.79+647174080+650666816+654012352+657268608+660497408+663835264+667428800
2607.29+671217984+674947008+678439744+681750336+685025856+688339968+691671168
2602.79+694964160+698212928+701505472+704954176+708532736+712027072+715215296
2598.29+718064384+720732544+723399744+726142528+728976832+731898240+734802048
2593.79+737510848+740055168+742770752+745846912+748921408+751487040+753608768
2589.29+755816192+758400960+761242432+764245568+767392896+770382272+772753088
2584.79+774492096+776130688+778176384+780711872+783480640+786091776+788279872
2580.29+790198016+792298496+794746752+797223168+799452544+801556032+803679296
2575.79+805687872+807479168+809217664+811049472+812899776+814725696+816643008
2571.29+818679296+820665216+822438144+823964544+825296576+826575680+827981888
2566.79+829526592+831049792+832482624+833905024+835341632+836827200+838601536
2562.29+840816640+843056512+844619328+845396608+846051648+847185472+848682240
2557.79+850069824+851244992+852534912+854148928+855856896+857295680+858364992
2553.29+859180736+859850624+860475328+861215296+862138240+863138944+864181760
2548.79+865427776+866945920+868501248+869812672+870837184+871666112+872364864
2544.29+873035008+873824960+874755200+875711296+876664704+877725376+878928384
2539.79+880125056+881129728+881851968+882338560+882803008+883537152+884636032
2535.29+885852288+886875392+887698560+888546432+889513216+890477184+891342848
2530.79+892149120+892944896+893734208+894532224+895329856+896044352+896659328
2526.29+897322176+898150976+899044544+899850432+900576896+901286912+901954496
2521.79+902558528+903196544+903951360+904765568+905554816+906317440+907038272
2517.29+907644544+908147648+908694016+909374912+910069696+910594176+910946752
2512.79+911328384+911928448+912771712+913707200+914484608+914890368+914930368
2508.29+914866624+914979264+915309248+915699648+916025536+916286336+916493504
2503.79+916597632+916567936+916494528+916569216+916931392+917528832+918145024
2499.29+918580928+918786368+918817024+918735424+918613248+918596480+918828928
2494.79+919232000+919488256+919387008+919083648+918801600+918419456+917675456
2490.29+916730816+916146560+916231808+916671104+916891968+916611008+916001664
2485.79+915386048+914847744+914197248+913353216+912530432+911916480+911431936
2481.29+910940736+910376576+909558976+908320512+906959424+906068160+905768960
2476.79+905564608+904996224+903997184+902637888+901041728+899523456+898365120
2472.29+897456384+896475264+895346688+894288768+893467008+892725440+891678656
2467.79+890120256+888347904+886882944+885828352+884791040+883456256+881940864
2463.29+880519040+879286720+878164288+877041472+875904896+874877824+874034048
2458.80+873211712+872158400+870794688+869170944+867358400+865597248+864260736
2454.30+863404288+862636864+861654144+860578944+859559296+858451776+857151552
2449.80+855875456+854863488+854037568+853177216+852187072+851056640+849772352
2445.30+848462272+847443328+846906624+846589952+845938880+844662016+843068096
2440.80+841756096+841003264+840530432+839897600+839006720+838116736+837440064
2436.30+836914880+836379328+835799232+835221760+834649152+834046528+833409728
2431.80+832733056+831982976+831185664+830502336+830114624+830000064+829877056
2427.30+829472128+828852672+828378432+828243648+828204672+827895680+827319296
2422.80+826811840+826557440+826362624+825974976+825432320+824967808+824701632
2418.30+824559488+824419264+824201088+823854720+823372672+822810176+822242304
2413.80+821731776+821336064+821043200+820738880+820374848+820098496+820005120
2409.30+819899520+819560448+819110272+818785344+818505152+818034176+817420096
2404.80+816892672+816477632+816057472+815635904+815225280+814659840+813824064
2400.30+812882368+812051712+811323392+810614080+809975744+809466752+808991296
2395.80+808443904+807848448+807220672+806436096+805372480+804105024+802875072
2391.30+801899264+801218304+800658944+799949376+798930176+797692352+796469568
2386.80+795411072+794447168+793367616+792013056+790426496+788809472+787331008
2382.30+786038400+784940608+784023232+783153088+782164672+781061696+779938432
2377.80+778720512+777253120+775641280+774167296+772875904+771544000+770049536
2373.30+768484032+766930112+765396224+763938496+762627712+761407104+760104896
2368.80+758582016+756833344+754969088+753108800+751289024+749524992+747900416
2364.30+746453952+745028672+743401216+741501376+739425856+737346240+735475200
2359.80+733925248+732533376+731007424+729262208+727440128+725660736+723940224
2355.30+722280192+720699712+719217472+717835840+716444608+714805376+712805376
2350.80+710608832+708409664+706207104+703978304+701855168+699961664+698235904
2346.30+696494400+694566848+692385728+690072512+687853888+685821504+683916736
2341.80+682139840+680501184+678784128+676716544+674399168+672217792+670321216
2337.30+668522752+666681344+664851648+663001984+660923136+658561280+656217600
2332.80+654202176+652425600+650551296+648478016+646406528+644445568+642456576
2328.30+640330816+638142720+635981568+633868672+631835520+629877824+627893248
2323.80+625849856+623850624+621872896+619703872+617317824+615018752+613012672
2319.30+611124544+609087552+606872000+604631744+602536384+600669696+598906240
2314.80+596941568+594627776+592191872+589971136+588041088+586207168+584227968
2310.30+582000192+579643072+577396928+575348608+573352768+571331328+569434816
2305.80+567726784+565939072+563812480+561471616+559225088+557128000+555012608
2301.30+552807232+550574464+548337856+546085696+543878656+541769728+539695616
2296.80+537589696+535505696+533474656+531360224+529035008+526594080+524213856
2292.30+521922528+519676672+517534816+515561568+513676288+511774016+509880288
2287.80+508033792+506152864+504124800+501917216+499542528+497073792+494686368
2283.30+492518944+490491872+488447264+486392448+484430624+482528672+480569792
2278.80+478533920+476466496+474385504+472336960+470388608+468482752+466469056
2274.31+464351328+462312832+460427072+458537152+456495488+454372768+452353920
2269.81+450505792+448713568+446841728+444921728+443109088+441471456+439909856
2265.31+438287392+436514784+434506272+432242176+429906208+427790752+426000416
2260.81+424351840+422617792+420742880+418795328+416820032+414840736+412933088
2256.31+411145984+409378016+407463296+405431488+403525536+401893600+400404928
2251.81+398826176+397049248+395097408+393073568+391131104+389351392+387632224
2247.31+385843104+384020672+382301536+380710496+379130720+377442688+375641760
2242.81+373855456+372205248+370629344+368983904+367322240+365833568+364480896
2238.31+363002656+361288064+359451264+357577888+355728960+354086912+352734304
2233.81+351420128+349900096+348297696+346795456+345228992+343378592+341429152
2229.31+339788032+338579968+337575456+336501120+335230432+333769216+332184224
2224.81+330513984+328755072+326942432+325186176+323561440+322040672+320585120
2220.31+319212192+317914592+316598816+315203872+313806112+312538560+311426368
2215.81+310371648+309211488+307765536+305987072+304163648+302737088+301764896
2211.31+300776640+299364416+297676800+296102592+294736608+293408448+292035008
2206.81+290709664+289549120+288535488+287449728+286042496+284364928+282771328
2202.31+281474208+280332160+279179584+278049984+276957760+275760864+274389600
2197.81+272962528+271624928+270419488+269294464+268148480+266937456+265775328
2193.31+264783552+263874320+262864448+261729232+260567584+259422992+258283408
2188.81+257115840+255856464+254528384+253331840+252395056+251546592+250561264
2184.31+249443440+248265344+246989936+245673648+244541840+243679184+242913744
2179.81+242099936+241222864+240203392+238950000+237612032+236490656+235666352
2175.31+234937440+234099424+233136224+232160960+231236144+230244736+229021360
2170.81+227658944+226477504+225604064+224808288+223891648+222965728+222206208
2166.31+221582368+220960160+220253872+219390352+218335024+217202720+216156896
2161.81+215208336+214246240+213200368+212085968+211010944+210189024+209713248
2157.31+209292208+208487824+207286992+206104224+205202112+204440192+203661712
2152.81+202953376+202415664+201953328+201416128+200777328+200108784+199464272
2148.31+198796128+197956112+196853392+195628656+194550256+193746400+193124528
2143.81+192528144+191861392+191093632+190241072+189360912+188515648+187753520
2139.31+187113856+186601008+186151728+185657712+185046032+184325584+183556704
2134.81+182767344+181929696+181061504+180264656+179598976+179004224+178420512
2130.31+177861680+177275280+176511520+175570208+174698880+174111296+173729488
2125.81+173282528+172585232+171708320+170906096+170333120+169852032+169264880
2121.31+168643520+168187280+167821664+167261936+166460000+165693840+165199184
2116.81+164915200+164614112+164152400+163575008+163008496+162456640+161786992
2112.31+160965376+160158448+159539920+159096240+158677680+158142320+157471952
2107.81+156812192+156328464+155978176+155578416+155087168+154593040+154080096
2103.31+153453152+152755648+152092880+151434000+150742512+150174992+149901264
2098.81+149843808+149774000+149554960+149171808+148664096+148114832+147598000
2094.31+147105792+146598688+146076544+145547600+144975728+144325312+143620880
2089.82+142941040+142383824+141994000+141718768+141455568+141159056+140850976
2085.32+140531360+140135088+139599344+138962064+138347296+137815088+137294848
2080.82+136746688+136312576+136127136+136046768+135760560+135131856+134303104
2076.32+133531032+133026872+132804256+132604480+132117272+131351560+130612696
2071.82+130125384+129874080+129763576+129688072+129496568+129088216+128533896
2067.32+127979448+127501264+127108000+126775768+126437672+126025920+125543112
2062.82+125035712+124521400+124006376+123522312+123124848+122871400+122779752
2058.32+122736152+122543288+122106912+121550136+121068576+120753184+120558680
2053.82+120376384+120096232+119673480+119138448+118543112+117912264+117266064
2049.32+116681432+116268560+116057392+115940864+115784920+115570872+115334360
2044.82+115012784+114509464+113873760+113260136+112728304+112262472+111912344
2040.32+111740224+111693224+111658504+111544824+111255768+110758160+110212160
2035.82+109800048+109444472+108950472+108362440+107913240+107709560+107691608
2031.32+107752008+107682408+107251720+106545008+105985728+105797800+105712808
2026.82+105381376+104818200+104268376+103855856+103539432+103278208+103080920
2022.32+102924064+102718896+102417072+102108208+101885192+101632904+101138432
2017.82+100471136+100019224+99998960+100130072+99959840+99368912+98617024
2013.32+98015920+97695880+97600944+97555632+97371872+97003016+96590456+96279632
2008.18+96041416+95770960+95510368+95391168+95368320+95225584+94879648+94485888
2003.03+94208152+94063824+94011944+93980952+93803712+93335312+92685416+92140816
1997.89+91837640+91660720+91457008+91182544+90829504+90375952+89849008+89356312
1992.75+89025776+88907888+88889384+88714496+88246592+87691896+87394712+87411544
1987.61+87482320+87422448+87284776+87102680+86801176+86437664+86235120+86283784
1982.46+86460976+86652792+86765752+86581360+85954816+85139496+84583360+84427392
1977.32+84473264+84543264+84587904+84530864+84306704+84019224+83848968+83795808
1972.18+83647624+83226776+82621560+82104856+81790808+81446136+80796696+79968832
1967.04+79446832+79562024+80168208+80800008+81067264+80918008+80594784+80328960
1961.89+80123792+79871352+79565736+79272952+79018952+78844288+78824488+78889352
1956.75+78779000+78346032+77780736+77398920+77288360+77267072+77129744+76837288
1951.61+76494608+76209504+76038616+76022840+76178064+76401680+76446568+76083768
1946.47+75360976+74644440+74295520+74264248+74157288+73774720+73393168+73374392
1941.32+73692040+74033192+74189384+74151120+73974368+73725496+73465696+73207560
1936.18+72988248+72953856+73194808+73563440+73816120+73867000+73742080+73443072
1931.04+73036360+72709896+72544624+72373192+72035872+71646392+71447504+71492720
1925.90+71608592+71582424+71297544+70776472+70198024+69815048+69774112+70036632
1920.75+70403240+70495512+69903184+68727760+67864984+68197720+69419664+70307000
1915.61+70248688+69807232+69693504+69892520+70056896+70100696+70081400+69964096
1910.47+69776720+69633560+69508336+69295280+69080048+69019848+69023952+68874000
1905.33+68614216+68533096+68786176+69177472+69354528+69182256+68891648+68777560
1900.18+68798896+68663736+68288128+67958248+67970832+68270208+68500960+68389200
1895.04+68064928+67923376+68098016+68266512+68127152+67782808+67427984+67021552
1889.90+66563116+66349244+66607264+67128040+67547624+67743696+67786088+67724552
1884.75+67567992+67354288+67174112+67150456+67322168+67573328+67795936+68016504
1879.61+68220144+68240800+68030456+67821640+67802216+67862936+67857736+67847352
1874.47+67900952+67936104+67924744+67992984+68121408+67943208+67129408+65921560
1869.33+65054960+65043076+65675236+66379308+66853012+67116560+67214848+67174656
1864.18+67128856+67222368+67443024+67706368+67967144+68181176+68293048+68309872
1859.04+68278960+68220016+68178568+68236424+68399328+68589864+68772760+68939400
1853.90+68987424+68828720+68590688+68516824+68653064+68780568+68655400+68264192
1848.76+67838320+67673960+67893704+68228352+68003104+66616148+64407140+62885156
1843.61+63396732+65446284+67250392+67836408+67706640+67714296+68051648+68374976
1838.47+68340648+67890832+67344040+67153600+67396264+67682304+67679432+67472696
1833.33+67348280+67399824+67382320+66916156+65988916+65195904+65215712+66077456
1828.19+67226056+68030456+67975896+66905776+65455568+64757104+65277452+66401444
1823.04+67381632+68058496+68527624+68734320+68630768+68328888+67955112+67583584
1817.90+67303984+67204320+67289080+67461344+67576200+67568264+67523280+67510840
1812.76+67400368+67044240+66598244+66400492+66542756+66761980+66785488+66669720
1807.62+66751320+67227832+67839416+68130432+67982312+67603400+67116960+66505448
1802.47+65863628+65306412+64764620+64280296+64234428+64852560+65730564+66258644
1797.33+66277232+66044388+65856252+65771544+65372928+63947060+61480384+59328228
1792.19+59095568+60777028+62931956+64535216+65563896+66122140+66152472+65900244
1787.05+65722776+65480160+64873728+64206572+64049996+64373144+64689920+64763528
1781.90+64612088+64246856+63846872+63718564+63838408+63928636+63971636+64042616
1776.76+63922220+63529664+63182752+62713648+61171012+58358936+55881296+55631452
1771.62+57613960+60236072+62082064+62509700+61619604+60473628+60486708+61896168
1766.48+63473976+64085756+63796088+63295744+62759632+61663656+59838040+58374588
1761.33+58754804+60882268+63017372+63911844+63773300+63099512+62002420+61010144
1756.19+61053492+62085472+63058036+63496088+63619468+63047116+61151788+58795524
1751.05+57958920+59088892+60548316+61162148+61445340+62143304+63019284+63506460
1745.91+63582620+63564744+63578796+63600360+63790088+64352668+64891480+64404948
1740.76+62572176+60726192+60659944+62451860+64608264+66083472+66570504+65314192
1735.62+61453380+55811256+51342004+50950980+54664044+59684348+63154924+64200164
1730.48+63886448+63791316+64492748+65423056+65924564+65937956+65781104+65699688
1725.33+65684788+65605832+65466908+65457888+65721544+66148232+66448868+66341456
1720.19+65576740+63812472+60800068+57236944+55223636+56477388+59813104+62427028
1715.05+63464560+64365632+66098232+67869496+68834192+69208808+69389152+69475904
1709.91+69791776+70623256+71504080+71713520+71256040+70772216+70829736+71571192
1704.76+72739080+74107376+75802560+77372952+76895360+72805000+67007604+64724472
1699.62+69151056+77333824+84031472+86549224+85065624+82130864+82129080+87694096
1694.48+96229080+103310720+107647456+110705312+113726904+116740416+119851952
1689.98+123653984+128101136+132472280+136612400+140698384+143677632+143835264
1685.48+141578960+140469328+144073552+151855840+160388656+167439824+172813712
1680.98+177186928+181393312+185980128+190924528+195913840+200562352+204123840
1676.48+205951312+206951152+209765696+216129408+224358288+231198288+235489568
1671.98+238705616+242418368+246358368+249743024+253460096+259266496+267092368
1667.48+274958944+281535168+287206464+292797888+298327808+303226208+307452128
1662.98+312141408+318675488+326822112+334782720+341430752+347289056+353141568
1658.48+358939200+364353024+369245024+373298336+375955232+376602816+374556320
1653.98+370127360+366691264+369634464+379900736+391536544+398931872+401482080
1649.48+401318304+400390176+399588128+398943776+398326080+398527904+401022400
1644.98+405685312+410120096+412456672+413174112+413555776+413854240+413793792
1640.48+413545888+413106336+411821152+409360448+406017376+401493536+394989408
1635.98+387482720+382241024+380936864+380669568+377536224+370913088+362804672
1631.48+354916576+347452320+339847840+331469664+321953312+311678592+301698208
1626.98+292822368+284948480+277205952+268571680+258849552+249370592+241943488
1622.48+236725072+232108096+226767984+220691488+214445616+208247936+201552784
1617.98+193522400+184756320+178316880+176854592+178561056+179345216+177802208
1613.48+175309280+173042976+170916000+168757280+166726176+164806928+162980512
1608.98+161477616+160291040+159079712+157779344+156630576+155671168+154811296
1604.48+154127840+153614752+153087824+152567296+152217440+151904144+151415536
1599.98+150919664+150622432+150396640+150192864+150232880+150431264+150350512
1595.48+149979584+149792880+149951344+150209888+150579152+151296128+152239008
1590.99+152989664+153319008+153280080+153177344+153597840+154966992+156986672
1586.49+159000080+160719264+162132768+163126672+163746176+164374896+165261888
1581.99+166375104+167781904+169510624+171234416+172737024+174053456+174458720
1577.49+172634688+169139200+167636608+171293568+178280976+184246176+187477312
1572.99+189140400+190482064+191337472+191070912+190025760+189656144+191177600
1568.49+194215280+197314400+199460928+200524304+200836400+200984784+201565408
1563.99+202640704+203684688+204004048+202702176+198849216+192806880+187070000
1559.49+184316944+184794384+187432272+192020272+197744144+201850192+202247744
1554.99+200056704+198568752+199847152+202920096+205525904+206387728+205721872
1550.49+204635216+204137056+204347568+204607872+204243040+202956288+200703728
1545.99+197773280+195046976+193366864+192077104+189233680+184081664+178361728
1541.49+173967136+170076400+165000768+160209488+159445456+163083856+166963216
1536.99+167741840+165655808+162334928+158456640+154185712+150649264+149356224
1532.49+150147040+151153872+150986224+149751296+147999440+145900080+143759280
1527.99+142181072+141093056+139653152+137712768+136352768+136315136+136650208
1523.49+135645248+132574072+128363592+125156224+125020264+128154936+132317712
1518.99+134626208+133976568+131886728+131005176+132369376+134686096+136445008
1514.49+137225440+136918624+135435472+133483704+132196384+131646504+130958608
1509.99+129743336+128056584+125373440+121067032+115857864+111908992+111307632
1505.49+114451784+119672368+124485496+127397608+128511280+128696784+128603744
1500.99+128370472+127815648+126935840+126353840+126614288+126971512+126281968
1496.49+125310720+126365792+129957624+133895560+136418496+137715744+138297616
1491.99+137950144+136787584+136006176+136841760+139261136+142129904+144500384
1487.49+146515824+149000784+152187344+155346304+157904368+160177120+162622176
1482.99+165077184+167257488+169458544+172173312+175390640+178701184+181814288
1478.49+184530528+186582112+188089376+189934208+192866032+196235152+198594688
1473.99+199602112+200521568+202862992+207080416+212542272+218094800+222676736
1469.49+225965184+228401200+230433632+232036560+233000448+233281936+233247008
1464.99+233908464+236195648+239487744+242064304+243381888+244477424+245962208
1460.49+247154160+247468704+246974080+245378304+242435232+239839776+240681440
1455.99+245617184+251666144+255972544+258089152+258674784+258199856+257189680
1451.49+256476768+256470240+256657760+256285936+255265936+254169984+253628800
1446.99+253863856+254559152+255034320+254727488+253685040+252423264+251333008
1442.49+250469984+249768544+249021344+247916000+246465776+244844592+242427392
1437.99+238106800+232423184+228229376+227571936+228769264+228746608+226655456
1433.49+223617520+220634816+217914848+215324048+212552176+209394368+206253536
1428.99+203719712+201670992+199590768+197421200+195260240+192803696+189932336
1424.49+187178768+184878544+182650832+180222672+177715280+174678912+170244912
1419.99+164907488+160930592+159880960+160628464+161127072+160789856+160224736
1415.49+159845472+159507024+158993936+158293680+157553792+156931744+156387392
1410.99+155674304+154742912+153984000+153790704+154083808+154488672+154708912
1406.50+154511264+153763680+152830528+152483760+152977168+153615456+153594016
1402.00+152744304+151211376+149081616+146731312+144887248+143816864+142944288
1397.50+141672544+139977568+137921776+135384736+132652904+130579368+129606672
1393.00+129139792+128322984+126988352+125565976+124331624+122948216+120800096
1388.50+117822896+114898816+113102576+112508704+112247808+111730040+111139608
1384.00+110735152+110352232+109753936+108941832+107975336+106900424+105933416
1379.50+105392504+105352312+105580800+105783472+105731312+105268448+104405992
1375.00+103405328+102685696+102606656+103266120+104436856+105726848+106816640
1370.50+107495592+107649288+107424736+107283592+107536800+107913512+107895568
1366.00+107321872+106381536+105274992+104233344+103584312+103380872+103255560
1361.50+103020344+103014512+103500240+104141888+104440608+104305904+103922704
1357.00+103436608+102981992+102681112+102434296+101964064+101184784+100327368
1352.50+99645216+99156296+98744864+98422080+98323376+98394504+98290528+97801632
1347.36+97153496+96663040+96376456+96316752+96674832+97375624+97891864+97849032
1342.21+97397088+96765560+96000568+95320968+95113728+95351704+95557592+95445440
1337.07+95143208+94833704+94630248+94668024+94920488+95053792+94791352+94296712
1331.93+93956448+93910248+93968904+93933072+93828200+93814928+93934592+94068400
1326.79+94118768+94106848+94098976+94188088+94473288+94909136+95287048+95503168
1321.64+95604520+95511608+95054488+94361888+93795968+93435448+93083440+92745296
1316.50+92593888+92502216+92129464+91467088+90912952+90806152+91139976+91661144
1311.36+92071680+92186424+91984592+91552776+91089544+90904808+91152136+91556784
1306.21+91639856+91264352+90774776+90605960+90864864+91251072+91370480+91188208
1301.07+91065216+91251360+91590096+91872480+92111640+92269656+92133888+91701360
1295.93+91326816+91308568+91614008+92073624+92555448+92980952+93429088+94104632
1290.79+94961184+95576704+95679576+95585544+95821096+96475624+97173720+97566440
1285.64+97654032+97702680+97984032+98552416+99211352+99731776+100092056
1281.14+100449768+100900384+101392040+101884496+102453456+103173720+104027912
1276.65+104948896+105850376+106638392+107307536+108000120+108848376+109815800
1272.15+110806104+111831856+112963440+114190272+115414544+116558424+117688360
1267.65+119024968+120723504+122622608+124384776+125900160+127344800+128848984
1263.15+130367272+131902072+133621312+135726720+138286032+141133472+143902752
1258.65+146314400+148425744+150498960+152714736+155157856+157875872+160775744
1254.15+163665664+166511600+169423472+172373520+175259632+178250496+181662448
1249.65+185433232+189045664+192086080+194664736+197234064+200128368+203363616
1245.15+206829872+210534688+214534416+218694848+222764416+226709824+230752592
1240.65+235027376+239377856+243535920+247423520+251309424+255641760+260583872
1236.15+265748432+270549472+274783072+278714112+282735040+287105088+291841920
1231.65+296707680+301409888+305885408+310237920+314488800+318635680+322783008
1227.15+326928608+330791776+334187488+337377696+340770208+344452352+348263360
1222.65+352062208+355692704+358952128+361802400+364429408+366923392+369101184
1218.15+370812320+372271776+373908928+375888000+377905568+379507424+380534592
1213.65+381171712+381670208+382138176+382537280+382726464+382570368+382114240
1209.15+381548352+380924384+380078816+378909792+377486528+375856736+373977536
1204.65+371881056+369660320+367307840+364784320+362153376+359429888+356469312
1200.15+353211968+349828704+346463936+343039680+339441888+335685536+331818496
1195.65+327873792+323969952+320271744+316842752+313595200+310359424+306985056
1191.15+303456960+299901504+296451584+293206528+290284544+287672704+285074944
1186.65+282228768+279269312+276442592+273657504+270757888+267994400+265724992
1182.15+263876144+262142832+260526736+259270208+258378016+257502512+256290272
1177.65+254738048+253185440+251946864+251038400+250364400+249918880+249620448
1173.15+249243872+248759856+248383408+248134240+247822448+247545936+247626160
1168.65+248026464+248415584+248702128+248939184+248979360+248805792+248831904
1164.15+249343440+250056016+250627792+251132128+251763120+252570816+253574720
1159.65+254668000+255471408+255782080+255985488+256610576+257703856+258996624
1155.15+260372560+261883968+263540432+265311440+267170896+269099872+271144064
1150.65+273466880+276216288+279336416+282542720+285540736+288339840+291243104
1146.15+294448192+297927136+301827168+306485248+311766432+316946720+321648128
1141.65+326323360+331516128+337240192+343345280+349791424+356319264+362539744
1137.15+368598464+375158144+382532384+390338656+398089088+405720864+413485216
1132.65+421627616+430234752+439260224+448640736+458361664+468343136+478384000
1128.15+488345024+498329376+508573472+519202784+530121088+541090624+551946240
1123.65+562820288+574073024+585900480+598025408+609918848+621359232+632672128
1119.15+644295872+656246912+668245632+680260352+692484224+704757184+716547712
1114.65+727692736+738655424+749845952+761110016+772093312+782749760+793348864
1110.15+804144064+815039680+825542144+835249536+844378368+853471936+862683328
1105.65+871759744+880577408+889143168+897276352+904868160+912253376+919881408
1101.15+927829504+935892544+943724096+950790016+956779072+962171136+967800256
1096.65+973851712+979926464+985901376+991932864+997783296+1002952128+1007477504
1092.16+1011935296+1016723200+1021816320+1027049856+1032197888+1036911232
1088.30+1040962432+1044469056+1047674112+1050668864+1053532544+1056529280
1084.44+1059905920+1063495808+1066728064+1069127232+1070752128+1072044992
1080.58+1073185536+1073741824+1073185344+1071617728+1069630976+1067489024
1076.73+1064923840+1061832704+1058724416+1056120704+1053672512+1050146880
1072.87+1044465856+1036891136+1028997568+1022062656+1015620416+1008156160
1069.01+999018752+988820992+978116544+966745024+954504256+941496128+927726656
1064.51+913174720+898241344+883453312+868841472+854085504+839026624+823673216
1060.01+808043392+792228352+776352640+760478016+744760960+729434304+714384448
1055.51+699244480+684148032+669690048+655888576+641962560+627435136+612721088
1051.01+598421952+584678976+571335936+558212672+545245504+532653504+520721984
1046.51+509219552+497559104+485765408+474642240+464624736+455050944+445028672
1042.01+434612544+424656864+415675616+407318848+399051200+390919808+383303296
1037.52+376172448+369156512+362211328+355620960+349351936+343006144+336453024
1033.02+330013632+323973184+318362656+313184480+308496160+304308896+300620096
1028.52+297397376+294370240+291070208+287257536+283130112+279126368+275739680
1024.02+273393664+272102720+271279680+270200224+268666112+267054976+265816448
1019.52+265132736+264911312+264894560+264869328+264915328+265355536+266376720
1015.02+267822928+269408864+271052832+272913504+275164736+277800800+280665120
1010.52+283699584+287157440+291482944+296873792+303007200+309368320+315891200
1006.02+323106688+331532896+341082048+351267264+361798496+372698304+383959168
1001.52+395453248+407133248+419017376+431034720+443138240+455477664+468189696
997.02+481077824+493725056+505922944+517858048+529843200+541864320+553451136
992.52+564066240+573561792+582067840+589527872+595675200+600428928+603945920
988.02+606179904+606678848+604953216+600966144+595221056+588383360+580721344
983.52+571956224+561762880+550331584+538284992+526177184+514217536+502328320
979.02+490251072+477734624+464822176+451898528+439302048+426946016+414469504
974.52+401749824+389119168+377050432+365748544+355091424+344822272+334727360
970.02+324801504+315316960+306559712+298475712+290811360+283550592+276876800
965.52+270781376+265089248+259792768+254981696+250551008+246331984+242394560
961.02+238933472+235966736+233331120+230854256+228456880+226250928+224508672
956.52+223342128+222469152+221425104+219948448+218137104+216376464+215094512
952.02+214426032+214135552+213927616+213735872+213664480+213781584+214010112
947.52+214104016+213787280+213043168+212203712+211644224+211497616+211692512
943.02+212076336+212442000+212591728+212513216+212462592+212742784+213306800
938.52+213690896+213520544+212980416+212550736+212472368+212737216+213291168
934.02+213885680+214149280+214224048+214810368+216069936+217069344+216898688
929.52+215896000+215200288+215402640+216075776+216497808+216547936+216818560
925.02+217821840+219230944+220219920+220463760+220382320+220460816+220781888
920.52+221213280+221635408+221942688+222102736+222233024+222534832+223167760
916.02+224110208+225021664+225430112+225247968+224947568+225083168+225781104
911.52+226770928+227690528+228295968+228539648+228512752+228303600+228020992
907.02+227884032+228088000+228585216+229208080+229869104+230422304+230562640
902.52+230185632+229668928+229478368+229722176+230281392+231103536+232092640
898.02+232965952+233475920+233636496+233608640+233514080+233394304+233191184
893.52+232796032+232274896+231945424+231999600+232165648+232059808+231763792
889.02+231685440+231885664+231976480+231760688+231499120+231342528+230923568
884.52+229937184+228813648+228302112+228514064+228855104+228872608+228731632
880.02+228778208+228989312+229005792+228569344+227813936+227132992+226730544
875.52+226461040+226231392+226261184+226592944+226685744+226065936+225117952
871.02+224562688+224360336+223794096+222556256+221157008+220302672+220282592
866.52+220920432+221848016+222857920+223968928+224980864+225229920+224257360
862.02+222566192+221207264+220679648+220640688+220610048+220631456+221275392
857.52+223007360+225367744+226984784+226761392+224855408+222201664+219655632
853.03+218120112+218492160+220386576+221769776+221243312+219996912+220101456
848.53+221581040+222789632+222969664+222626464+221965696+220728400+219464576
844.03+219344688+220597600+222180256+223098112+223458400+224016048+225041328
839.53+226022608+226354288+225753344+224036144+221489744+219528816+219385680
835.03+219906560+218628560+215292480+212163904+210601168+209531376+207597984
830.53+204667792+201079856+197361200+194703840+193930176+193985040+193039600
826.03+191103600+190089488+190850256+191652032+190638960+188773328+188522272
821.53+190067840+191048112+190212736+188830080+187921792+186739024+184794672
817.03+182916784+181478080+179727232+177487440+175625024+174598592+174123488
812.53+174071984+174324592+174176400+173111200+171634816+170565104+170116768
808.03+170055056+170040160+169575456+168296000+166514624+165196048+165148752
803.53+166256048+167488288+167949824+167794480+167780048+168241632
##END=
