##TITLE=octarelline 6 front
##JCAMP-DX=4.24
##DATA TYPE=INFRARED SPECTRUM
##DATE=31/1/2005
##TIME=21:38:49
##SAMPLING PROCEDURE=film
##ORIGIN=Vincent
##DATA PROCESSING=no operation
##XUNITS=1/CM
##YUNITS=ABSORBANCE
##RESOLUTION=2
##FIRSTX=4000.283
##LASTX=800.31372
##DELTAX=-0.64282227
##MAXY=0.18773302
##MINY=-0.004872161
##XFACTOR=1
##YFACTOR=1.7484e-010
##NPOINTS=4979
##FIRSTY=0.016428258
##XYDATA=(X++(Y..Y))
4000.28+93961667+93598504+93128104+93029728+93330696+93643080+93765464+93893848
3995.14+94106984+93984416+93191288+92202320+91825120+92072168+92181264+91762288
3990.00+91286856+91399448+92156224+93013128+93331624+92930600+92189096+91522952
3984.86+91022384+90721680+90744256+90958640+91039728+90997504+91074128+91149544
3979.71+90973080+90738112+90699120+90591616+90204696+90012936+90504408+91394072
3974.57+92082456+92367352+92340920+92145920+91973832+91811904+91333400+90563824
3969.43+90274400+91049416+92372720+93237392+93297488+92880944+92330008+91860464
3964.28+91714208+91893944+92012104+91834648+91726952+92143632+92926296+93553464
3959.14+93812520+93738864+93189592+92110584+91022384+90576416+90703104+90721840
3954.00+90287752+89814448+89897800+90477528+90745952+90047184+88772056+87903264
3948.86+87700024+87512768+87011920+86792976+87443904+88601128+89244552+88567368
3943.71+86608232+84424544+83498488+84496536+86627248+88493256+89437160+89839768
3938.57+90337808+91065680+91669648+91864296+91786864+91721112+91488552+90324144
3933.43+87746344+84580944+82584240+82624800+83784368+84759872+85502504+86802632
3928.29+88832816+90806920+91651216+90715080+88356568+85949712+84759720+84941712
3923.14+86005184+87446816+88338920+87555088+85337632+83472296+82992328+82765456
3918.00+81225432+78670200+77147512+78301936+81663592+85221480+87660760+89328944
3912.86+90818120+91845568+92178040+92280224+92354896+92067872+91537536+91131576
3907.72+90423016+88682752+85607952+80582864+73107392+65112008+60121036+58785376
3902.57+58522368+58342596+59786604+62426012+63347752+62323988+63109920+68175832
3897.43+75616608+82230536+86588752+88645312+88932400+88486200+87592664+84553824
3892.29+77710224+69092552+64115464+66279688+73503104+81036976+85934224+86775808
3887.15+81659616+70427984+58334248+53313620+58082508+67973904+76979832+82238960
3882.00+82854712+78655216+71936032+67671272+69446360+75937608+82967672+87903104
3876.86+90515000+90655336+87406336+81088056+74722960+72223328+74720824+78629240
3871.72+77679520+68081176+52916576+41103432+40258672+50238444+64412200+75484736
3866.58+78997400+74333608+65528332+59784028+61536636+67851112+72420576+73393760
3861.43+74332544+78092760+83406304+87731616+89720656+88818856+85954920+83321944
3856.29+78948184+64266184+34084268-1921604-25178142-27866396-17297916-764734
3851.15+20673906+44419916+64276816+77010216+84337080+88709600+91255368+92765680
3846.01+93204808+91116368+85895456+79790464+76052552+75502744+75824040+74543536
3840.86+72091488+70003056+65885132+54594424+37455868+25727070+28671532+41438976
3835.72+52548176+58497808+63734776+70260440+74432624+73537416+70221448+69444688
3830.58+73368296+79944736+85513096+87864608+86987544+84113616+81179392+80361864
3825.44+82390920+85519528+87091816+85030568+77449472+63778364+48181428+38831236
3820.29+40671312+51025236+63710164+73102208+73602840+61826532+42987076+30683816
3815.15+34698408+51147060+68897856+81197576+87877184+90957720+91919608+91958320
3810.01+92091072+91808832+88018304+77401968+61838224+50124228+50384844+60957708
3804.86+73088640+80507776+81208912+73049304+55186556+34646160+24670398+31981496
3799.72+49931768+67192360+77683800+81029928+79357224+76313304+75877616+79261224
3794.58+84203528+88240584+90980912+92902608+94051000+94569712+94869032+94851648
3789.44+94199856+93348224+92975616+92892632+92425280+91362744+89901488+88440336
3784.29+87732544+88274648+89518504+90503328+90636456+89145560+85262704+80148248
3779.15+77043056+78090784+82222272+86905672+90476152+92455080+93155768+93271208
3774.01+93171440+92890640+92641808+91921600+88551408+81080720+72325456+67990792
3768.87+70793408+77598704+82869560+83574432+80895792+78395904+78660576+81428744
3763.72+84872168+87792048+89826584+90243240+87722256+81944376+75354400+72078840
3758.58+73684888+77163864+78855576+78838912+79615408+82107344+84151304+80849136
3753.44+66944280+43666852+22871270+16165930+19145920+18027910+10755775+9545521
3748.30+22434540+43035128+59409752+61833368+44373036+11446720-16843854
3743.80-18977578+4421456+34100476+55837128+68442904+75562424+79483944+80969512
3738.65+79342384+73062104+62533660+51030984+42097700+38053704+40242272+46987512
3733.51+52275232+51184380+46585896+46699044+55345056+68126984+78716504+84719576
3728.37+86766144+85562424+81872760+77694176+75487032+76255296+78809416+80637456
3723.23+79787704+76890648+75073912+76730920+80689000+83794632+84658760+84520128
3718.08+85119288+87042136+89578208+91276408+91235240+89831024+86731800+79123040
3712.94+65376480+50492720+43241364+46020552+52504012+57082428+60979100+67398800
3707.80+75644688+82752456+87483624+90336272+91825432+92214456+91401448+88502160
3702.66+83041920+76926848+73809952+75742680+81191312+86780096+90350240+91894416
3697.51+92254712+92036232+91742928+91688544+91551672+91019928+90309864+88607872
3692.37+83595264+75172792+67476080+62963372+56993344+44526180+30672118+27617496
3687.23+39702888+58511908+74065896+83527264+88718512+91314208+92294352+92815016
3682.09+93465056+93589280+92084312+88680456+84664128+82102296+80903592+76561272
3676.94+63368712+41775920+21502170+14568332+24615670+44783948+64101640+73299360
3671.80+68376712+53598920+39885224+35995484+41772756+52239552+64234132+76107512
3666.66+85595832+91437552+94537264+95994936+96206080+96105584+96679072+97480264
3661.52+97668728+97498272+97408040+97286712+97107032+95804424+90297880+79521088
3656.37+68763144+65629880+71639472+81655648+90196096+94299968+92440336+84559792
3651.23+72368440+58182836+44832336+36428148+35935248+41813860+50152180+59395652
3646.09+70090624+81409616+90952040+97226200+100384024+101339248+101371944
3641.59+101768464+102935472+104270840+105069552+105133344+104754792+104594344
3637.09+105258456+106581784+107449408+106591048+103728496+100297536+98767720
3632.59+100306032+102643824+100777784+90560752+72586888+53477140+42665776
3628.09+45676088+59847728+77394336+91865832+101257504+106697712+109845936
3623.59+111591504+112337880+112326112+110966880+106670648+98953064+90557848
3619.09+85679360+85906024+89649576+95048232+100933056+105582688+107390816
3614.59+106594296+104379560+101338008+98793128+99448904+103504048+106337464
3610.09+103753808+97819952+94344560+95817200+100111016+105014256+110343656
3605.59+115998032+120853944+123975824+125417872+125665800+125108008+124137064
3601.09+123227816+122681616+122448464+122483768+123133224+124567448+125889912
3596.59+125753784+124123064+122534320+122402112+123850856+126223536+128852840
3592.09+131297440+133251696+133979592+132027424+126718496+119893376+114667968
3587.59+112398752+112541744+115068480+120512320+127651304+133625056+136829696
3583.09+138127872+139045088+140058048+140910496+141580304+142376992+143376400
3578.59+144235328+144699184+144952816+145228736+145465296+145735952+146517168
3574.09+147983024+149533584+150481312+150810416+150951360+151051584+150520800
3569.59+148239200+143664704+137886048+133026440+130578272+130974504+134206328
3565.09+139538512+145096416+149204976+151892704+154078416+155867968+156740368
3560.59+156847920+157122816+158258352+160078736+161842416+163000688+163660032
3556.09+164155056+164429040+164246944+163675376+162843696+161808608+161182752
3551.59+162076464+164678512+167694256+169730176+170421424+169984464+168700736
3547.09+167205824+166412864+166792848+168142736+170043728+172181232+174354848
3542.59+176428816+178250448+179661792+180696064+181528016+182193088+182631296
3538.09+182906512+183005776+182737424+182270848+182388752+183668576+185791008
3533.59+187967632+189601168+190371360+190307936+189921920+189786896+189963632
3529.09+190130336+190082384+189851760+189674368+190000256+191098480+192565952
3524.59+193675392+194201424+194509280+194994016+195866640+197297824+199290288
3520.09+201408928+202950320+203477168+203184880+202780992+202964000+203933088
3515.59+205403664+207025424+208564160+209756192+210336032+210346352+210163472
3511.10+210078560+210092928+210306080+211161376+212877056+214842960+216137344
3506.60+216605968+216887376+217381984+217822832+217991936+218206720+218885600
3502.10+220030032+221370768+222710016+224007344+225295648+226600992+227854928
3497.60+228923280+229748624+230400928+231014064+231730736+232653920+233704816
3493.10+234574080+234952096+234884896+234867792+235427664+236540160+237667632
3488.60+238443104+239034624+239694048+240388288+241101792+241975120+242842032
3484.10+243147184+242676816+241973616+241846656+242777552+244761888+247292416
3479.60+249535424+250889632+251338096+251201648+250848800+250702896+251103008
3475.10+252023952+253183248+254327344+255201360+255622576+255898944+256711664
3470.60+258262752+259979392+261268240+262056384+262508848+262783024+263153040
3466.10+263804288+264455696+264686256+264592720+264680832+265147152+265717360
3461.60+266199520+266804080+267785936+269022240+270152160+271051776+271907296
3457.10+272793664+273529728+274086016+274756000+275609632+276108128+275716832
3452.60+274705248+273912576+273851072+274410240+275283584+276220480+276884736
3448.10+276973952+276667456+276658528+277494560+279025440+280646912+281993792
3443.60+283243008+284720608+286302784+287378112+287507424+286997184+286615488
3439.10+286861376+287642080+288501472+288973952+288964320+288976768+289697888
3434.60+291171840+292690016+293599648+293843296+293659648+293306208+293154944
3430.10+293542336+294350272+295121792+295650752+296153600+296796032+297341344
3425.60+297406624+297045984+296894976+297477344+298417312+298781632+298264864
3421.10+297597536+297670976+298692800+300195520+301448384+301929024+301847616
3416.60+302026816+302837024+303613376+303631104+303246656+303436832+304446816
3412.10+305513344+305829792+305412192+304963040+305074688+305687616+306354656
3407.60+306855328+307277856+307645664+307881600+308132544+308636064+309266112
3403.10+309604064+309498400+309234976+309207776+309645312+310455648+311097088
3398.60+310891200+309776608+308517856+308001952+308496416+309586944+310518720
3394.10+310710688+310391904+310537664+311658976+312982304+313437632+313039424
3389.60+312607008+312569696+312845984+313408736+314146912+314504768+314079520
3385.10+313327936+313118016+313795648+314994848+316052928+316446752+316161888
3380.60+315744544+315756000+316235360+316878144+317442016+317777504+317791808
3376.10+317650464+317734944+318201888+318823488+319340960+319811616+320511712
3371.60+321572832+322710080+323353088+323164352+322369728+321480352+320804320
3367.10+320324800+319869856+319331520+318843680+318719936+319054432+319530240
3362.60+319854912+320162048+320714560+321407200+321881408+321921696+321531232
3358.10+320890144+320438656+320690144+321661472+322703872+323218784+323324352
3353.60+323542272+324019104+324472416+324808640+325288928+325995008+326522400
3349.10+326481088+326026016+325617728+325403200+325156608+324775584+324437312
3344.60+324148800+323624928+322929600+322746016+323501408+324628128+325293632
3340.10+325536320+326011328+326901728+327682400+327875168+327595552+327379872
3335.60+327503168+327531232+326960672+326329088+326757440+328134176+328990784
3331.10+328687264+328229632+328370880+328526720+328236224+328084832+328432224
3326.61+328737248+328695360+328711232+328896160+328831904+328528544+328565056
3322.11+329179968+329998720+330611616+330880352+330854656+330740608+330786624
3317.61+331007872+331178240+331094144+330767680+330449536+330478304+330996768
3313.11+331890720+333005792+334117472+334736416+334479936+333711840+333274144
3308.61+333558400+334310400+335274208+336475392+337868128+339044960+339372224
3304.11+338460032+336700896+335168800+334679680+335076128+335694976+336123104
3299.61+336208928+335838528+335148096+334636480+334683200+335105568+335352640
3295.11+335014944+334189440+333488512+333594496+334656288+336160256+337394944
3290.61+337944448+337795680+337210432+336574208+336210752+336191136+336269088
3286.11+336068704+335425024+334512640+333591424+332759488+332040128+331490560
3281.61+331080640+330714752+330546624+330950176+331908640+332720192+332673632
3277.11+331867680+331056608+330682624+330397120+329713120+328815200+328319520
3272.61+328428000+328831904+329263616+329502656+329073632+327755200+326274048
3268.11+325605024+325616864+325261056+324061920+322538624+321237536+320238176
3263.61+319603648+319501760+319698112+319531904+318614272+317264384+316094496
3259.11+315316064+314579072+313492896+312182912+311195264+310864672+310941408
3254.61+310877760+310394752+309710720+309173760+308750080+308069664+307109824
3250.11+306455456+306599712+307249216+307616832+307208480+306073440+304613056
3245.61+303370976+302729824+302556064+302358240+301900416+301432672+301213024
3241.11+301064928+300543552+299467520+298165056+297144576+296538464+296053024
3236.61+295482144+295055424+295108256+295605696+296098720+296065216+295264192
3232.11+293936448+292631392+291741248+291223808+290785536+290239968+289707872
3227.61+289544320+289901024+290340832+290209376+289435552+288505792+287680608
3223.11+286787456+285810400+284987104+284340224+283724416+283240000+283029792
3218.61+282906144+282717024+282704096+282949280+282907648+282062432+280690016
3214.11+279559264+279156480+279421056+279854368+279797184+278971264+277831168
3209.61+277099264+276973120+277022624+276797344+276256704+275589792+274877376
3205.11+274115424+273433376+272964352+272492928+271636736+270499840+269693664
3200.61+269504864+269519712+269275168+268781024+268184544+267409472+266437200
3196.11+265577968+265219968+265451936+265984144+266287536+265915424+264864496
3191.61+263640960+262846736+262714736+263018064+263336576+263311376+262715056
3187.11+261499328+259993872+258928016+258825664+259327984+259472496+258773248
3182.61+257685744+256883888+256441600+255992496+255432080+255004464+254747744
3178.11+254297952+253486384+252772768+252680000+253068992+253406048+253484416
3173.61+253420160+253208144+252794240+252321040+251885312+251311072+250507360
3169.11+249725824+249214416+248873344+248453248+247879968+247285712+246874384
3164.61+246733936+246739008+246709264+246580896+246311776+245849488+245350672
3160.11+245115664+245085104+244790992+243965328+242847248+241860528+241304912
3155.61+241240448+241389776+241362656+241213376+241341952+241747776+241907360
3151.11+241522752+240795072+239919920+238898496+237901440+237302544+237234496
3146.61+237417232+237443120+237139840+236720432+236520768+236499296+236223440
3142.12+235471136+234504768+233643808+233011648+232758448+232965632+233188400
3137.62+232696016+231400144+230057872+229342320+229122480+228908000+228609312
3133.12+228490160+228570992+228496992+228035856+227426864+227058416+226925568
3128.62+226592688+225761104+224782784+224373104+224705952+225090576+224777248
3124.12+223814064+222750352+221875504+221208928+220926032+221221072+221903184
3119.62+222479264+222522000+221920672+221028960+220502256+220597392+220826032
3115.12+220663088+220240800+219945248+219755520+219402736+218818000+218090368
3110.62+217376160+216949424+216995648+217322512+217579776+217620480+217376784
3106.12+216671216+215495744+214287904+213645136+213779072+214247872+214306272
3101.62+213697248+212978832+212771072+212919648+212870128+212558640+212363344
3097.12+212458816+212725424+212997536+213034960+212612544+211887328+211278736
3092.62+210903312+210548096+210172336+209952896+209954352+210134320+210505088
3088.12+210975520+211288096+211320816+211182976+210912832+210382784+209559312
3083.62+208576240+207599024+206816864+206452912+206531424+206733200+206684448
3079.12+206334816+205944560+205781632+205924944+206301840+206735312+206944480
3074.62+206671264+205971264+205259424+204881072+204708384+204325600+203587232
3070.12+202834464+202486384+202499696+202373744+201847472+201347904+201353232
3065.62+201537248+201189280+200382688+199945680+200273232+200899536+201249984
3061.12+201119792+200516880+199676944+199103376+199007792+198950848+198478368
3056.62+197789808+197376208+197330208+197287712+196831744+195886832+194934288
3052.12+194630512+195005056+195398096+195321376+194898064+194367280+193799472
3047.62+193369680+193305856+193536304+193834176+194117856+194225760+193853568
3043.12+193086608+192495696+192394752+192525808+192585296+192480672+192102192
3038.62+191432688+190760960+190245584+189594944+188680928+188038832+188179872
3034.12+188851040+189433712+189698176+189756208+189680304+189510880+189419824
3029.62+189566032+189860560+189974352+189614608+188794016+187845120+187187488
3025.12+187087856+187526928+188153984+188507936+188436192+188185472+188011872
3020.62+187914448+187808896+187689920+187587904+187597312+187818640+188079408
3016.12+188010592+187625888+187382736+187408928+187221664+186528720+185800080
3011.62+185654880+186078208+186534464+186631184+186464096+186348048+186285824
3007.12+185943696+185324176+185055392+185560272+186326512+186576768+186319504
3002.62+186129280+186252944+186517056+186828784+187197056+187461616+187476128
2998.12+187455056+187816544+188685888+189703632+190387984+190627472+190733456
2993.62+191004608+191393504+191701664+191926384+192204240+192570112+192954736
2989.12+193402672+194095584+195077280+196013072+196424704+196233344+195912304
2984.62+195951232+196366688+196917632+197583824+198569904+199914880+201300560
2980.12+202261952+202576320+202477552+202445424+202814080+203649760+204875280
2975.62+206294128+207561664+208447904+209082704+209779056+210691888+211774784
2971.12+212924144+214071792+215256592+216552144+217795056+218592960+218858432
2966.62+219103744+219901232+221209248+222503696+223414400+224012224+224531904
2962.13+225029632+225402304+225653616+225975456+226486656+227064096+227514480
2957.63+227710640+227514816+226838624+225879968+225023312+224486832+224260304
2953.13+224244752+224186400+223727888+222851552+221989472+221456400+221112640
2948.63+220776208+220504512+220311520+220039552+219702912+219583408+219893776
2944.13+220581024+221447344+222241392+222787568+223174672+223655936+224251376
2939.63+224755232+225216864+225980352+227147488+228322976+229044048+229255280
2935.13+229310496+229637376+230301344+230817776+230708608+230288352+230415376
2930.63+231294048+232110112+232172048+231808736+231749248+232161472+232722544
2926.13+233156224+233308128+233102064+232715376+232468400+232409216+232340480
2921.63+232184064+231909040+231248544+230006176+228512896+227320096+226517136
2917.13+225767760+224872096+223908016+222935776+221878896+220683152+219389984
2912.63+218069168+216788832+215592288+214477872+213398256+212344640+211364160
2908.13+210473184+209609728+208789440+208203184+207918192+207535936+206529488
2903.63+204962112+203532784+202833040+202852960+203175424+203275344+202714000
2899.13+201490672+200249312+199729392+199978416+200370016+200364704+199978416
2894.63+199497072+198977168+198233152+197262240+196407408+195906864+195546912
2890.13+195072160+194676624+194670528+194930272+195136384+195261648+195391520
2885.63+195359024+195008272+194509776+194071264+193684032+193407296+193450848
2881.13+193777376+194049184+194128592+194222704+194439488+194644896+194755888
2876.63+194814800+194794960+194658048+194538448+194608080+194814800+194966000
2872.13+194945648+194701936+194162176+193338512+192433136+191661680+191000144
2867.63+190237424+189330032+188553296+188143920+187947968+187673648+187363584
2863.13+187238896+187207888+186973568+186595280+186414944+186441104+186344864
2858.63+186100384+186048848+186256944+186377248+186233472+186072480+186094624
2854.13+186171056+186153696+186129280+186284384+186694544+187190992+187311056
2849.63+186605776+185192416+183765152+182865536+182388608+181973888+181503808
2845.13+180948480+180054976+178571472+176662480+174842976+173516896+172677008
2840.63+172055232+171520880+171254064+171416816+171712032+171565632+170775520
2836.13+169709552+168773344+168032944+167468720+167226096+167369744+167606336
2831.63+167505136+166952592+166279104+165935744+165996352+166007280+165463456
2827.13+164443424+163555184+163236272+163364176+163578752+163682480+163640256
2822.63+163450496+163167328+162905216+162757552+162739664+162792160+162778080
2818.13+162559312+162148688+161708912+161385312+161230784+161270608+161469376
2813.63+161631456+161512336+161073440+160550448+160262704+160344176+160613616
2809.13+160670032+160289536+159723920+159411792+159426000+159451728+159279040
2804.63+158986384+158637904+158186720+157697632+157303088+156965088+156638032
2800.13+156549088+156873312+157287952+157344256+157115408+156994736+157029600
2795.63+156929136+156543408+155924096+155127632+154320880+153836000+153825440
2791.13+154078896+154342464+154536384+154581152+154373328+154029744+153858528
2786.63+153970688+154151040+154152608+153960736+153730464+153572496+153480192
2782.13+153447264+153547296+153817568+154107552+154184128+153909856+153302064
2777.64+152565008+152111648+152245920+152710016+152871552+152509296+152076384
2773.14+152064896+152462992+152933920+153223648+153228368+152938960+152471184
2768.64+152012640+151670784+151405952+151133584+150856192+150729376+150937520
2764.14+151467792+152033104+152290784+152093232+151577776+151081168+150913616
2759.64+151061024+151206416+151173376+151190688+151493600+151838400+151745552
2755.14+151153872+150517024+150263296+150404240+150705008+150988032+151216656
2750.64+151432704+151656000+151788832+151696608+151460080+151373200+151583152
2746.14+151876800+151986816+151909696+151790880+151695968+151640720+151686848
2741.64+151882640+152206416+152582656+152884304+153014672+153066656+153260032
2737.14+153621152+153910016+153930640+153781808+153753136+154086768+154743744
2732.64+155362320+155615440+155640352+155854096+156361600+156893328+157264288
2728.14+157474560+157459728+157204032+157048048+157445376+158418064+159526096
2723.64+160331536+160721344+160857808+160965712+161152752+161474400+162062720
2719.14+162971920+163938208+164664416+165252048+165948240+166608368+166943440
2714.64+167155776+167736208+168744800+169819088+170772368+171694272+172630656
2710.14+173580256+174637888+175846320+177098704+178342224+179633472+180893056
2705.64+181950144+182890224+183980544+185227040+186382848+187447248+188706816
2701.14+190185456+191507696+192486240+193462528+194828608+196514592+198177344
2696.64+199684464+201174368+202775360+204440560+206065200+207714592+209629408
2692.14+211853792+213950912+215456496+216608368+218139328+220302768+222620608
2687.64+224677600+226578928+228509136+230426752+232352144+234467328+236809696
2683.14+239221104+241537920+243595072+245256032+246729872+248524304+250827856
2678.64+253243248+255330192+257056944+258632576+260285840+262269936+264706176
2674.14+267365296+269868608+272086176+274153952+276231072+278367872+280483808
2669.64+282472000+284419104+286612320+289183392+291935712+294626656+297124736
2665.14+299263232+300995936+302765760+305171808+308131200+310907168+313109952
2660.64+315108448+317299008+319498560+321342112+322946496+324850304+327373600
2656.14+330227360+332837184+334990240+336987936+339136448+341391072+343607360
2651.64+345858208+348289344+350917184+353659680+356356160+358730496+360678752
2647.14+362566016+364874080+367552032+370101408+372285792+374400192+376769440
2642.64+379291520+381603712+383579936+385570144+388040064+391018976+394057216
2638.14+396779968+399235552+401617344+403966944+406280704+408619520+411001216
2633.64+413433664+416016736+418744832+421325472+423533824+425598976+427917024
2629.14+430534432+433216768+435833728+438395968+440894400+443340928+445795360
2624.64+448239552+450579040+452808224+455015552+457226848+459429888+461687584
2620.14+464083392+466603072+469168032+471729344+474227392+476568544+478744160
2615.64+480922624+483310464+485919584+488551776+491068256+493566464+496181696
2611.14+498791744+501137792+503239488+505457632+508054176+510857280+513468704
2606.64+515701312+517703104+519717536+521856960+524143168+526600448+529184992
2602.14+531702752+533977952+536091264+538313088+540800896+543447552+545984896
2597.64+548199616+550116928+551987712+554035456+556242048+558418560+560412288
2593.15+562207552+563984960+566055232+568542592+571166016+573539008+575598656
2588.65+577546560+579545536+581720320+584134016+586516800+588370176+589653888
2584.15+591008896+592996160+595446720+597772864+599620032+601064576+602430080
2579.65+604003072+605787712+607578880+609357952+611388160+613771840+616188864
2575.15+618243264+619863808+621248256+622609024+624054784+625592896+627187712
2570.65+628828672+630478784+632005376+633316416+634523200+635785664+637106944
2566.15+638454528+639942336+641650112+643429696+645092288+646634560+648109888
2561.65+649452800+650586816+651607296+652734784+654128000+655730048+657260288
2557.15+658464448+659434048+660535360+661944128+663426944+664686912+665741440
2552.65+666838208+668116800+669484096+670755712+671838016+672762496+673612224
2548.15+674482432+675526080+676865216+678397184+679803392+680861824+681654912
2543.65+682407168+683273920+684328384+685575424+686907264+688170432+689283776
2539.15+690202048+690892096+691508544+692402880+693720960+695160576+696362880
2534.65+697395648+698583360+700015424+701422336+702456768+702967808+703171392
2530.15+703617856+704742848+706325696+707651968+708374336+708923392+709875200
2525.65+711214208+712471296+713372096+714026048+714651008+715420992+716445504
2521.15+717634048+718662016+719295680+719690048+720204736+720958464+721745536
2516.65+722385152+723014080+723915520+725091072+726196800+726993344+727644032
2512.15+728400448+729268992+730206912+731317760+732553984+733546624+734074432
2507.65+734411264+734934592+735643392+736321408+736912064+737511680+738205312
2503.15+739016640+739898304+740773824+741641600+742576832+743546816+744393280
2498.65+745043328+745606720+746270208+747167360+748245312+749189504+749657152
2494.15+749666624+749571520+749653952+749941504+750395520+751032576+751842240
2489.65+752747200+753621440+754306432+754726592+755006016+755347968+755786624
2485.15+756175296+756408704+756525888+756583936+756515328+756229504+755858304
2480.65+755758080+756090752+756565888+756807680+756826304+756847552+756906624
2476.15+756896576+756795968+756587328+756170560+755604928+755175744+754998656
2471.65+754807040+754348800+753782080+753477760+753510400+753560832+753316416
2467.15+752816896+752278784+751759872+751225856+750788544+750558848+750373760
2462.65+749969856+749312704+748513152+747655424+746909696+746509952+746399808
2458.15+746185408+745575552+744621056+743537728+742576448+741932480+741541120
2453.65+741155968+740742784+740455488+740165056+739542656+738669760+738025600
2449.15+737777856+737557952+737030272+736289088+735645120+735241408+734938816
2444.65+734537472+734085184+733792576+733583296+733088640+732260224+731570368
2440.15+731373824+731458752+731421312+731121664+730638400+730112128+729717760
2435.65+729549632+729513152+729440192+729269696+729070656+729003328+729172096
2431.15+729416576+729416576+729147968+728945728+728967616+728951104+728680128
2426.65+728322880+728152960+728229120+728458048+728692928+728765312+728631232
2422.15+728455936+728410176+728491264+728615232+728711360+728693120+728539712
2417.65+728405568+728472768+728720576+728966144+729035008+728832896+728419456
2413.15+728035648+727852416+727736320+727517056+727326592+727349632+727426048
2408.66+727289984+727013376+726791104+726496768+725924480+725284928+724999680
2404.16+725085952+725150912+724907712+724387648+723710080+722931328+722080448
2399.66+721197696+720327360+719548864+718924864+718422016+717957248+717524992
2395.16+717119360+716583744+715697600+714459584+713184192+712251392+711772352
2390.66+711500864+711057280+710269632+709257600+708202048+707140160+706048192
2386.16+704960192+703892608+702753024+701509376+700319744+699316928+698361728
2381.66+697199424+695779456+694241728+692699456+691198464+689764992+688309312
2377.16+686612288+684570816+682345856+680147008+678032064+676007680+674117696
2372.66+672278208+670249728+667922048+665479744+663141952+660887168+658605504
2368.16+656356864+654267520+652241344+650037824+647641856+645322688+643246912
2363.66+641292096+639335552+637496896+635969856+634787584+633874752+633150528
2359.16+632483584+631709056+630797120+629902656+629241216+628934272+628891776
2354.66+628865408+628768704+628852672+629341888+630017856+630483200+630641024
2350.16+630558912+630069632+628918656+627147456+624989184+622542528+619826816
2345.66+616983488+614212544+611635392+609282880+607092736+604949504+602857920
2341.16+600921280+599084416+597113920+594949824+592802176+590853632+589124544
2336.66+587596992+586203328+584746368+583090432+581348288+579703680+578183168
2332.16+576729600+575341312+574050304+572921344+572047168+571380416+570624064
2327.66+569460608+567875008+566180352+564761728+563774464+562986368+561987008
2323.16+560641408+559223360+558038528+557075328+556084224+554866112+553449088
2318.66+552095552+551081920+550394624+549730240+548821120+547599744+546091712
2314.16+544413696+542843072+541591808+540544704+539441216+538167424+536713792
2309.66+535055072+533274176+531585408+530086816+528701856+527409216+526265728
2305.16+525192032+523974080+522481248+520764800+518989216+517331968+515824160
2300.66+514307040+512675104+511027104+509437088+507813696+506175328+504711744
2296.16+503400480+501948032+500287424+498728224+497448448+496243392+494873664
2291.66+493308448+491585376+489760352+488008256+486518080+485291328+484162016
2287.16+482933344+481470496+479794016+478080352+476455168+474872960+473284992
2282.66+471735680+470219616+468630176+466938240+465224288+463546816+461929376
2278.16+460434464+459124768+457988864+456932800+455763392+454293888+452614752
2273.66+451082496+449839616+448604896+447152576+445671712+444419360+443316640
2269.16+442117376+440714624+439141920+437493632+435940736+434641184+433558240
2264.66+432469344+431151808+429577312+427957280+426538048+425308736+424039584
2260.16+422650144+421293920+420053312+418862592+417756096+416846592+415988864
2255.66+414837184+413308480+411698400+410298016+409130240+408078880+407065088
2251.16+406062272+405032192+403887808+402517440+400930848+399336064+397993408
2246.66+396959232+396049472+395027328+393800096+392466144+391216416+390169312
2242.16+389220352+388088896+386603168+384952544+383525920+382498912+381693952
2237.66+380826944+379746944+378462720+377136640+376023424+375193856+374373472
2233.16+373296800+372103680+371126144+370377216+369572000+368581920+367590976
2228.66+366756832+365958752+364960480+363746560+362565184+361598016+360702560
2224.17+359648064+358505696+357556960+356859104+356165728+355300032+354346528
2219.67+353454688+352634080+351788544+350819328+349700864+348528864+347477952
2215.17+346610016+345755584+344714112+343568608+342645888+342083072+341606528
2210.67+340888512+339943904+338981344+338046624+337065280+336113280+335370784
2206.17+334844160+334292608+333449024+332302272+331127648+330186080+329397472
2201.67+328511360+327552160+326793632+326305792+325872736+325363648+324823328
2197.17+324229088+323496544+322677056+321910624+321229600+320575552+319883520
2192.67+319085728+318190272+317341088+316648384+316036416+315398240+314726464
2188.17+314001920+313153824+312233792+311411104+310784160+310345088+310028224
2183.67+309668768+309051008+308139040+307098944+306106944+305319424+304877504
2179.17+304674144+304292064+303461440+302366912+301323008+300454144+299855360
2174.67+299680800+299836992+299886784+299443968+298484096+297250240+296041184
2170.17+295075968+294414784+293987936+293691808+293435520+293168128+292911904
2165.67+292669696+292310432+291718432+291019072+290406400+289819840+289104864
2161.17+288356800+287771264+287279520+286703872+286105536+285622848+285115136
2156.67+284352864+283436960+282697760+282247744+281905056+281523136+281146752
2152.17+280846816+280581248+280265696+279897280+279556256+279293632+279033088
2147.67+278566784+277725856+276607872+275574720+274926496+274611104+274370848
2143.17+274087648+273815872+273540128+273126944+272526464+271831488+271176128
2138.67+270685408+270438432+270336256+270152672+269822720+269508032+269256032
2134.17+268871424+268263216+267637168+267167120+266767488+266358912+266048400
2129.67+265849504+265497712+264807648+264032480+263603920+263600608+263642592
2125.17+263336080+262691200+262019680+261517760+261117568+260732096+260406688
2120.67+260154320+259845424+259405888+258959232+258663968+258516576+258358208
2116.17+257996144+257349392+256583600+256023680+255802432+255694128+255444688
2111.67+255104592+254872912+254741184+254493152+253990768+253323904+252693760
2107.17+252249600+252006080+251879584+251758000+251538800+251141040+250577600
2102.67+250010688+249612368+249366976+249112144+248784160+248475856+248261824
2098.17+248093488+247878352+247559840+247129520+246667056+246339888+246264176
2093.67+246384368+246487056+246309328+245676224+244699648+243813296+243403248
2089.17+243385728+243346544+243079584+242770528+242641216+242677280+242709792
2084.67+242565136+242142400+241539360+241045328+240825264+240714192+240516496
2080.17+240316864+240225520+240035184+239484704+238734336+238214480+238061296
2075.67+238016320+237806768+237391504+236875984+236420944+236165632+236067296
2071.17+235906896+235570592+235193136+234942784+234830208+234785920+234720832
2066.67+234445696+233785680+232901392+232267456+232157904+232327632+232339008
2062.17+232061680+231686528+231378384+231151696+231048336+231133328+231252768
2057.67+231076960+230520640+229919632+229604592+229500320+229312128+228972944
2053.17+228683008+228590656+228555072+228266160+227589136+226775504+226263808
2048.67+226213200+226346512+226301600+226007424+225644368+225353856+225094144
2044.17+224725552+224172304+223519856+222969472+222685376+222662064+222743376
2039.68+222808960+222866464+222896272+222704352+222166288+221533296+221177392
2035.18+221065376+220851600+220459200+220151504+220056528+220024352+219941504
2030.68+219841072+219742880+219674320+219724288+219855440+219833456+219517728
2026.18+219036128+218586640+218254576+218026512+217795696+217434336+216991744
2021.68+216661856+216464912+216200976+215765232+215237232+214631984+213930752
2017.18+213384400+213390224+213972704+214638784+214881232+214639424+214240304
2012.68+214005296+213973984+213937504+213672064+213152880+212557360+212080976
2008.18+211783472+211633072+211649840+211856048+212086800+212052112+211687888
2003.68+211258432+211022928+210967152+210944112+210870448+210678016+210270944
1999.18+209670640+209080288+208693152+208501200+208354352+208182080+208054416
1994.68+207970384+207615920+206562976+204881872+203420944+203126720+204001408
1990.18+205015168+205215216+204689568+204271920+204538928+205373920+206320032
1985.68+206954128+207004352+206506496+205887808+205632848+205845488+206268528
1981.18+206607696+206660304+206307488+205616608+204889600+204440720+204338480
1976.68+204411616+204460016+204387200+204169392+203822992+203470880+203304896
1972.18+203343312+203338336+203094416+202718496+202320432+201657504+200448480
1967.68+198959344+197963936+198074256+199202224+200637248+201621184+201893088
1963.18+201673072+201226688+200696800+200298768+200267632+200519440+200710432
1958.68+200689088+200591840+200480592+200191552+199602496+198853664+198263168
1954.18+198065744+198227856+198512176+198728544+198841456+198860544+198799760
1949.68+198704352+198582432+198351968+197914080+197194240+196258368+195523184
1945.18+195433984+195490352+194275232+191323296+188445632+188066768+190404624
1940.68+193357056+195052624+195472416+195572864+195804656+195926720+195745232
1936.18+195473200+195405808+195561968+195775024+195943536+196056656+196093664
1931.68+196025088+195861984+195620288+195287920+194859824+194385216+193989296
1927.18+193815472+193918208+194187168+194243040+193404272+191252304+188561600
1922.68+187061392+187713072+189779696+191827216+192513488+190394080+185111216
1918.18+179520640+178178864+182201872+187839552+191254528+192230624+192405488
1913.68+192490112+192490112+192601952+192690576+192177040+191069360+190103968
1909.18+189756976+189938064+190452080+191085520+191501296+191513920+191268272
1904.68+191076096+191261104+191914208+192633456+192912832+192832192+192850272
1900.18+193004032+192885472+192327104+191654800+191319440+191367440+191189936
1895.68+190180224+188879968+188639712+189757472+191046976+191588752+191423728
1891.18+190222736+187303056+183644640+181913968+183446192+186680192+189329392
1886.68+190687104+191278032+191515200+191433312+191181280+191159568+191632432
1882.18+192337504+192704512+192540352+192228080+192172560+192370288+192622560
1877.68+192853952+193126272+193500128+193899184+194149856+194177552+194027712
1873.18+193691248+193200400+192556976+190921024+186658624+179674544+173189856
1868.68+171225984+174305296+179448064+183982640+187359264+189795360+191260432
1864.18+191949760+192427392+193020192+193632192+194066480+194267360+194366000
1859.68+194532832+194751888+194914096+195072480+195325376+195614016+195891952
1855.19+196212064+196505136+196618752+196605600+196590704+196532048+196398096
1850.69+196232896+195877520+195052304+193760224+192460496+191997104+192505312
1846.19+191242384+183476640+169024496+156754400+157178800+169816416+184136176
1841.69+192406112+195199968+195985680+196317312+196482528+196523744+195990976
1837.19+194950464+194602496+195520608+196693280+197125824+196876256+196383984
1832.69+195839408+194459504+190124240+182045248+174117728+172334368+177974480
1828.19+186498400+192836672+194390816+190723072+184414592+180816768+183136640
1823.69+188883632+193656832+196113216+197381344+198240544+198770720+198987744
1819.19+198616272+197392080+195873392+195008096+195129968+195978640+197090736
1814.69+197848816+197900608+197508304+196777712+195049904+192136080+189610304
1810.19+189576752+192123936+195071536+196507040+196776112+197360848+198534816
1805.69+199308560+199271808+198765584+197400256+194424432+190654144+187882336
1801.19+186233792+184433888+182808000+183515056+187300656+191967168+194626656
1796.69+194443504+193170144+192944208+192607856+187348384+174744304+160596864
1792.19+154832464+160578880+171744880+181815392+189308768+194629392+197374432
1787.69+197914736+197389184+195291760+190683104+185832480+184823664+188289600
1783.19+192786752+195003472+193990880+190692864+187654656+187512048+190141696
1778.69+193141344+195202224+196196528+195131920+191936784+189298688+187690240
1774.19+181169664+164752704+144513376+134094768+140188864+156670976+172707936
1769.69+180639712+178611552+171807712+169475904+175964720+186249280+193086128
1765.19+195032480+194884960+193302016+187602928+177002688+166806784+164927824
1760.69+173189216+184837360+192267104+193560320+190318944+184225152+178772080
1756.19+179126288+185761152+192950256+196510576+196751616+192221056+179343200
1751.69+161970896+152541872+157325824+168307024+175514048+178395840+181445024
1747.19+186176512+191166928+195209744+197442752+197118944+194914432+193302016
1742.69+194660944+197971328+197646976+189003472+176328992+171068800+178430688
1738.19+191316736+200701120+203430416+197058048+176630832+143311632+111959480
1733.69+102383528+120396696+152465216+179747264+192554416+193645808+192209680
1729.19+194590160+200022240+204537952+206345936+206508096+206389200+206031904
1724.69+204801808+202824352+201315648+201459200+203166240+204998608+204940720
1720.19+200587984+188593520+166369648+138066976+117964648+119612776+138678560
1715.69+157377376+166549488+172442576+182405328+194084400+202063456+205623040
1711.19+206179920+204602592+203318064+204837824+207212416+206037392+200426496
1706.69+193417248+188261152+186653376+188611904+193263456+200238080+206558784
1702.19+201562432+173794912+129071472+96513592+103451888+143803392+186458192
1697.69+205212144+192026352+159313136+136882560+149347104+188862224+227137760
1693.19+248506288+257235088+262054048+265175168+266420368+268343536+272651200
1688.69+277752544+283090656+289305952+290648544+275388640+240902592+205513648
1684.19+196349712+220604832+260427056+295915232+318890816+330257792+335307776
1679.69+340231520+347987680+357125568+364243968+365040928+355619360+339006624
1675.19+329134976+339195840+364397120+386619456+395425888+395373984+394282816
1670.70+392205504+386308064+381272928+387019424+405951840+429083968+446511904
1666.20+456447936+462754208+467201984+467226304+461624320+456000992+459151872
1661.70+473063776+490503616+504093952+513121952+520322656+526940736+533108896
1657.20+538915520+542620928+540278976+527233792+498610912+453791232+408045248
1652.70+393642912+429577664+494482336+551260480+582104640+590429376+586448896
1648.20+577551808+566531392+554370944+545815552+550359872+571425664+597926976
1643.70+615469504+621450624+622754240+623675136+623531072+622624832+621884416
1639.20+619061824+612064192+601999616+587381056+562693440+531127904+511656896
1634.70+519950784+546563584+569195264+577442560+575364992+569558080+562716864
1630.20+554815744+544373312+529984032+513451968+499457600+490786784+485517568
1625.70+478475776+464303808+442009472+418546400+404247392+402054784+404928192
1621.20+404748128+399431360+391705568+383416224+370304160+344318144+306438400
1616.70+275807488+274099392+297572992+321980704+332486656+332519456+329812384
1612.20+326526624+322594112+318909120+315359936+311397696+308228704+306721824
1607.70+305402144+303290656+301684896+301316480+300960512+299773376+298169760
1603.20+296456704+294915904+294326272+294692160+294924384+294712000+294745664
1598.70+294925408+294516128+293732160+293124000+292327904+291180192+290635200
1594.20+291215968+292202848+293098656+294033280+294692352+294739840+294810560
1589.70+295477792+296339744+297251264+298706496+300396640+301517088+302398528
1585.20+303616704+304480000+304590272+305042560+306273408+307364128+308412416
1580.70+310247808+312071424+313011008+313168416+308339328+289696576+257667328
1576.20+232541248+237552128+269238368+302505216+321018656+327189536+329287456
1571.70+328662912+320913696+305837504+292449824+291689792+304357312+320800832
1567.20+331899360+335208800+332663680+327986176+325611424+327867712+332915200
1562.70+335819552+329295040+305623168+264428368+218849216+186753776+175256928
1558.20+182889456+210007504+251292736+287254464+299368448+289223456+276494336
1553.70+278253280+293428384+309208128+315601312+311588512+303260192+298196960
1549.20+299596288+304985120+309792544+310222496+303544416+289931328+275566784
1544.70+268822592+268973728+264515152+248252176+227777040+213480560+201451456
1540.20+182088928+162786816+165749440+198105024+240325344+270427840+282511968
1535.70+281153056+270496032+253897328+239332912+236585904+246669184+260294064
1531.20+269175328+272802880+273120864+269703392+263398288+258214128+255095392
1526.70+249736768+240885456+234926208+237351904+243665152+243155168+229073936
1522.20+204288176+181043696+174599280+190890928+219188800+240599360+244081504
1517.70+234563168+226718720+229690656+240025552+250396992+257608352+260071456
1513.20+256165984+248881056+245127744+246728224+248172176+244892128+236612944
1508.70+222080800+198212160+167203296+140521136+132825408+150629968+186118896
1504.20+222707584+247266592+257340352+258904176+259076064+259893920+257761104
1499.70+249942576+240941408+237460720+236701056+229462000+217367440+215486224
1495.20+231442240+253672320+268268496+273745440+274307200+269923904+259575856
1490.70+248189344+243762336+248757808+257782624+264006784+266387904+269763296
1486.21+277709952+287687488+295251008+299851040+303509152+306556480+308129856
1481.71+309173760+311782240+316364704+321677312+326782496+330754176+331404608
1477.21+327603328+323081056+323777024+329237568+331174496+323697280+311408704
1472.71+305119392+311845120+330612448+354719360+375752480+388622592+394653280
1468.21+398477632+402069024+403140672+398500032+388519488+379896640+381781984
1463.71+395246688+410687136+419727808+423369344+425113856+423648512+417133984
1459.21+406761472+391065440+366240512+339016288+329603936+349877568+386626400
1454.71+418107008+435269344+441543936+442703648+442164256+442028736+443426816
1450.21+445175136+444197856+438821792+431747488+428484320+431722528+438434048
1445.71+443652800+445510336+445458752+445113152+444645824+443907360+443282528
1441.21+442744576+441583712+439879168+437724576+431339904+414383360+388256832
1436.71+368089728+369370272+388293536+406677824+413558016+411835680+408102720
1432.21+404379488+399584224+393006656+385385120+379425920+377902400+379544416
1427.71+379985184+377594208+374202496+370143456+363779232+356035040+350338368
1423.21+348164992+348392928+348609600+343334112+326199456+299983520+280244832
1418.71+280424128+295743264+311179552+319345376+322737408+324758048+325703968
1414.21+325420096+324541920+323302112+321660768+320117952+319170400+318771104
1409.71+318787456+319168416+319634592+319776736+319047872+316475840+311690720
1405.21+306776768+305281120+308079360+311944704+313653472+313360736+312090208
1400.71+308358624+300663712+291908608+287435456+288650496+291769216+292325248
1396.21+288014656+279042816+269271712+265185344+269661120+278155552+284004896
1391.71+285171264+283872128+282221024+279990880+275094368+265946064+255015312
1387.21+248785952+251129728+258367760+264085008+266124384+266140688+265439568
1382.71+264341216+263435824+262875696+261867648+260106976+258291840+256929984
1378.21+256055520+255732688+255490816+253979488+250364704+245517024+241424336
1373.71+240045488+242230512+246697648+250730064+252667184+252801616+251804032
1369.21+250078992+248780368+249140752+250541584+251332384+251170048+250342096
1364.71+247845936+242966432+237879120+235730304+236687536+238543840+240369536
1360.21+242869936+245877424+248052560+248843376+248920784+248836832+248517744
1355.71+247937392+247390720+247145216+247244176+247535968+247738464+247667312
1351.21+247425584+247248928+247245008+247358192+247428992+247254640+246746064
1346.71+246082240+245615920+245609856+246074080+246761744+247317440+247372560
1342.21+246454032+244132112+240714832+237564976+236141872+236706768+238350048
1337.71+240033568+241216800+241830672+242140752+242469328+242825856+243029776
1333.21+243126768+243307216+243505776+243507568+243338192+243222144+243255104
1328.71+243313888+243226528+243002688+242868624+242919568+242843504+242365024
1324.21+241741072+241327920+240995424+240510608+239995904+239461552+238562224
1319.71+237371648+236601712+236552208+236702992+236695536+236782976+237039024
1315.21+237034592+236526320+235786768+235229904+235175712+235773264+236702048
1310.71+237246704+236976608+236132256+235292576+234958912+235342720+236156048
1306.21+236695696+236476304+235767408+235311296+235541120+236145280+236402400
1301.72+235939328+235077088+234398016+234199344+234475296+235087968+235720704
1297.22+236037984+236103264+236287120+236691632+237060000+237270160+237438592
1292.72+237577552+237595152+237600544+237755456+237937440+237946096+237919376
1288.22+238163296+238675840+239158304+239417712+239526304+239644336+239873920
1283.72+240209344+240550064+240821376+241101456+241519984+242038096+242482384
1279.22+242760080+242885968+242862608+242746352+242772480+243175584+243883040
1274.72+244558992+244954224+245096352+245199328+245486464+246069840+246902688
1270.22+247804880+248511360+248827520+248875808+249093456+249809648+250919248
1265.72+252149312+253413280+254674112+255726304+256401856+256833952+257338208
1261.22+258229920+259725920+261691632+263541360+264785248+265628848+266682768
1256.72+268183376+269834944+271341248+272788032+274510112+276657696+278899040
1252.22+280686720+281931424+283177600+284881664+286760704+288194720+289096896
1247.72+290007712+291373952+293089152+294838208+296606528+298602144+300829472
1243.22+303006624+304927072+306700032+308588768+310762336+313201824+315720352
1238.72+318082080+320241568+322429376+324888320+327520384+329904000+331748256
1234.22+333303392+335206080+337792832+340666688+343122656+344939616+346548032
1229.72+348474208+350837920+353353952+355596832+357263456+358383776+359358496
1225.22+360675296+362514624+364660480+366846784+369020928+371177024+373115488
1220.72+374603616+375650016+376413984+377009120+377615392+378477760+379575616
1216.22+380585280+381345536+381976224+382456512+382615520+382627840+382912288
1211.72+383457152+383844864+383933184+383909472+383766944+383351584+382815872
1207.22+382472544+382300544+382056384+381659488+381116864+380347328+379409888
1202.72+378610816+378111168+377670592+376988128+376053760+375008768+373919392
1198.22+372781504+371568672+370264480+368986368+367983456+367307936+366628128
1193.72+365624608+364429824+363437504+362817536+362429120+362057376+361560736
1189.22+360949600+360454688+360305408+360384832+360338944+360032224+359649088
1184.72+359369664+359245440+359332832+359663488+360148256+360709216+361428992
1180.22+362343104+363197088+363698368+364072544+365036128+366894976+368921984
1175.72+370162048+370724384+371544096+372949120+374358176+375415648+376397120
1171.22+377413120+378267392+379197504+380758016+382895520+384990464+386695040
1166.72+388052032+389124064+390141568+391544704+393415840+395380352+397296288
1162.22+399351424+401456000+403349088+405215232+407384832+409596128+411388896
1157.72+412952480+414829312+417051808+419248352+421354784+423674112+426343488
1153.22+429121088+431666848+433959104+436456480+439760960+443967520+448455776
1148.72+452470080+455855552+459111264+462731872+466696160+470771648+475122496
1144.22+480159744+485825408+491590784+497249504+503125984+509348128+515527872
1139.72+521372576+527096352+533037504+539267328+545666176+552090752+558498240
1135.22+565083392+572114816+579519360+586925888+594202880+601579072+609207360
1130.72+616992128+624835008+632657728+640273984+647598592+654889728+662500224
1126.22+670531456+678856896+687243456+695426816+703397376+711512256+719950784
1121.72+728274752+736089984+743807616+752091968+760826304+769339392+777412736
1117.23+785384256+793420928+801278720+808703488+815719680+822594112+829660800
1112.73+837033280+844467392+851701760+858862912+866273344+873923968+881382976
1108.23+888197248+894274880+899928128+905613440+911578176+917761856+924007680
1103.73+930211392+936242880+941930624+947226304+952316544+957520384+963008512
1099.23+968509888+973454720+977657856+981696192+986237824+991212864+996061184
1094.73+1000552128+1004850944+1009003136+1012895360+1016572032+1020228608
1090.87+1024032256+1028108096+1032424576+1036571584+1040041088+1042856512
1087.01+1045505408+1048212608+1050811840+1053373760+1056340416+1059799296
1083.16+1063207488+1066088512+1068484736+1070504640+1071966848+1072823552
1079.30+1073378240+1073741824+1073614336+1072885632+1071874304+1070711040
1075.44+1069201856+1067522880+1066178560+1064908288+1062558528+1058570304
1071.58+1053788288+1049307520+1045196288+1040762496+1035470016+1029189504
1067.73+1022119232+1014825536+1007947008+1001524864+994879168+987380608
1063.87+979135552+970699392+962253824+953385280+943748608+933642048+923603648
1059.37+913646336+903384128+892870400+882618944+872591488+861909376+850098816
1054.87+838069952+827129856+817390656+807782016+797402176+786182144+774472576
1050.37+762647872+751027968+739695168+728469376+717239552+706057152+694790592
1045.87+683241088+671745664+661076672+651517632+642504704+633302272+623623168
1041.37+613660544+603887424+594768256+586364928+578338752+570384512+562409408
1036.87+554335552+546084864+537761472+529601216+521830880+514604992+507823456
1032.37+501036352+494007360+487262176+481538080+476861792+472735488+468938624
1027.87+465511584+462174208+458396032+453994368+449411136+445506240+442987008
1023.37+441685920+440566624+438766528+436369184+433927776+431753504+430031968
1018.87+429000928+428611168+428518112+428592864+428973984+429617952+430369632
1014.37+431372000+432893504+434912128+437313408+440182496+443518080+447044064
1009.87+450642752+454623520+459303776+464669568+470566016+476862944+483421760
1005.37+490199712+497320192+504841120+512635648+520673568+529103072+537861056
1000.87+546552896+554899584+563003648+571091264+579306816+587776448+596505728
996.37+605169152+613357312+621027392+628437696+635735040+642929856+650108096
991.87+657273920+664083200+670072256+675085824+679251648+682723520+685627712
987.38+688050112+689863872+690785600+690743168+689951936+688533376+686295872
982.88+683008832+678721344+673790016+668659904+663525184+658102208+651906048
978.38+644845184+637365056+629930624+622532800+614735040+606112576+596696768
973.88+587066560+577834304+568985600+559987712+550621312+541353600+532741344
969.38+524773312+517018560+509203232+501427488+493953888+486923840+480303264
964.88+474046080+468227744+462907424+457904320+452911936+447889184+443182336
960.38+439141792+435700224+432477760+429286336+426395520+424190944+422643296
955.88+421284096+419705472+417930272+416235392+414743904+413326816+411875360
951.38+410512960+409453024+408784640+408500480+408601696+408983776+409322752
946.88+409267104+408742400+408014976+407479040+407386240+407668320+408063520
942.38+408433408+408770656+408956768+408946432+409155360+410055040+411299392
937.88+411912096+411451264+410407552+409487712+409135936+409567200+410552096
933.38+411400992+411808640+412350752+413483872+414582432+414711520+413940992
928.88+413149344+412866464+412920352+413041824+413277696+413811552+414606784
924.38+415265216+415290048+414558496+413470368+412561888+412064640+411837600
919.88+411588288+411116832+410453056+409762784+409130528+408550208+408079200
915.38+407787520+407495776+406778752+405368224+403516800+401908704+401152512
910.88+401197792+401241952+400415904+398687744+396899168+395811264+395296384
906.38+394609696+393307200+391735360+390620800+390235136+390085280+389505760
901.88+388389632+387054880+385624928+384071424+382740576+382083648+381835744
897.38+381206272+380034528+379027488+378640352+378429664+377783648+376690688
892.88+375430976+373979968+372207168+370422400+369253856+368896192+368848320
888.38+368547424+367939872+367189152+366246016+365112672+364102048+363392928
883.88+362752576+362081728+361696544+361687936+361585408+361036224+360269440
879.38+359610752+359076224+358576704+358004128+357124608+355819584+354401376
874.88+353358560+352881728+352744832+352508352+351923328+351235584+350795296
870.38+350361376+349414336+348148800+347297632+346985888+346694784+346302944
865.88+346182976+346340576+346286976+345595616+344144320+342321312+341158720
861.38+341343872+341986752+341552448+340050528+338983040+339188896+340090752
856.88+340990080+341719136+341879328+340623360+337718208+334391168+332648096
852.38+333320736+334875552+334884192+332894912+330914176+330664992+331364000
847.88+330962944+328826688+326195392+324079808+321839136+318808480+316341088
843.38+316236864+317784896+318744864+318959648+320141856+322641312+325193408
838.88+326905248+326949344+324037472+318903776+315051136+314355424+314386816
834.38+312319744+308798176+306062240+304838208+304461056+303955872+302070464
829.88+298246144+294049792+292043968+292945888+294984256+296044512+295697760
825.38+295077600+295144480+295390752+294604672+292665696+290645856+289192160
820.88+288027264+287108512+286890336+287210752+287109024+285938432+283785344
816.38+280980960+278265856+277075424+278313376+280878816+282582816+282637216
811.88+282163616+282190336+282377248+282046368+281315200+280647104+280231008
807.38+280237504+280790944+281357792+281273248+281076416+281972896+283845888
802.89+285229376+285428512+285178880+285104992+285043552
##END=
