##TITLE=octarelline 6 front
##JCAMP-DX=4.24
##DATA TYPE=INFRARED SPECTRUM
##DATE=31/1/2005
##TIME=16:52:35
##SAMPLING PROCEDURE=film
##ORIGIN=Vincent
##DATA PROCESSING=no operation
##XUNITS=1/CM
##YUNITS=ABSORBANCE
##RESOLUTION=2
##FIRSTX=4000.283
##LASTX=800.31372
##DELTAX=-0.64282227
##MAXY=0.21558183
##MINY=-0.00094995915
##XFACTOR=1
##YFACTOR=2.0077623e-010
##NPOINTS=4979
##FIRSTY=0.0031433692
##XYDATA=(X++(Y..Y))
4000.28+15656083+15931157+15661408+15120581+14721250+14611693+14665822+14736178
3995.14+14722548+14480077+13927220+13271760+12911160+13012200+13327282+13487368
3990.00+13417702+13378783+13554055+13733752+13598944+13235307+13052798+13219741
3984.86+13542897+13887252+14272673+14576517+14576129+14329390+14107467+13968354
3979.71+13754253+13416016+13048388+12718432+12513273+12583300+12981719+13547308
3974.57+14015590+14184421+14064511+13933059+14018704+14139391+13955506+13529534
3969.43+13224411+13121287+13059283+13121157+13489575+13902824+13890756+13492429
3964.28+13205473+13214940+13215980+13053966+13035027+13425097+14019871+14425822
3959.14+14516940+14367805+13989376+13429639+12941898+12696255+12510161+12194808
3954.00+11968954+12129463+12540895+12853055+12972381+12937619+12664353+12202718
3948.86+11927599+12085767+12473981+12822056+13109871+13271240+13057468+12427169
3943.71+11731201+11340788+11395093+11903615+12699109+13304451+13253987+12613905
3938.57+11960139+11834907+12356369+13230508+13992230+14323290+14177545+13586490
3933.43+12566701+11433588+10905481+11424386+12520923+13269813+13342979+13265662
3928.29+13618278+14238801+14412584+13805246+12905711+12339512+12103531+11927469
3923.14+11998386+12587579+13244647+13282656+12875493+12819981+13303543+13712083
3918.00+13586490+13087950+12597434+12371670+12511977+12921666+13390199+13812771
3912.86+14185850+14474885+14631813+14627270+14391429+13929684+13464147+13191333
3907.72+13049555+12922703+12720896+12091991+10697772+9010927+8047255+8005974
3902.57+8123091+8061361+8335988+9156843+9951844+10334234+10632988+11193817
3897.43+11874187+12376986+12601844+12633747+12706242+13016868+13336881+13049036
3892.29+11877947+10455622+9883845+10700493+12446748+14208692+15251200+15085009
3887.15+13477899+10883064+8675892+8294702+9855999+12110142+13840669+14672832
3882.00+14646741+13797849+12548546+11884170+12479296+13865064+15078127+15825825
3876.86+16398915+16683568+16058315+14414272+12697681+12092640+12805326+13743224
3871.72+13397075+11152606+8015421+6012335+6552181+9296293+12677061+15112272
3866.58+15692836+14433610+12378542+11145867+11684273+13325726+14517198+14550038
3861.43+14154444+14348079+15241980+16275244+16932394+16908486+16240430+15386239
3856.29+14311870+11716032+6555673+483411-2830469-1832342+1498808+5065764
3851.15+8665536+12365056+15284569+16686687+16995936+17198532+17756906+18325568
3846.01+18267708+17304452+15777382+14395192+13778387+14058024+14697495+14927528
3840.86+14564057+13940973+12854870+10586346+7600967+6099736+7523208+10422715
3835.72+12449861+13206250+13813940+14701260+15101756+14466709+13406935+13091970
3830.58+14034275+15646604+16961630+17506556+17305752+16500376+15462202+14936875
3825.44+15371824+16269657+16709553+16167816+14477091+11686607+8649613+7035635
3820.29+7841115+10361438+13139836+14982703+14835876+12186381+8350485+6263815
3815.15+7686620+11292444+14547310+16230948+16588332+16325775+16055978+16098453
3810.01+16350588+16403592+15683875+13708193+10889931+8991249+9593999+11992680
3804.86+14022337+14633630+14129140+12462180+9258484+5673238+4351618+6485194
3799.72+10362605+13611920+15277687+15509599+14792905+13949668+13857797+14563797
3794.58+15249511+15377279+15303137+15600761+16305771+17042328+17444690+17284698
3789.44+16582876+15743096+15263145+15258081+15481292+15686472+15710628+15447139
3784.29+15051252+14938044+15270025+15677380+15651669+14994906+13870383+12741777
3779.15+12217498+12601974+13594923+14614808+15275349+15523234+15562972+15658811
3774.01+15832189+15840242+15538039+14933240+13888291+12345087+10959906+10784455
3768.87+11981790+13481012+14169498+13895297+13265662+12939823+13152028+13645134
3763.72+14021559+14149514+14130047+13962904+13516950+12792096+12056208+11681552
3758.58+11832832+12297888+12684324+12828541+12900265+13089507+13126475+12064895
3753.44+8949173+4368671+1004465+984342+2726513+2958891+1402562+979699+3432504
3747.65+7156451+9703562+9627541+6180028+143890-4731432-4302220+820276+6179640
3741.87+9039799+9940188+10282803+10652294+11014979+11006168+10094845+8250568
3736.73+6198260+4719709+4259508+5121334+7000711+8495708+8364981+7252824+7104062
3730.94+8720163+10932693+12331213+12671744+12462829+12032871+11400537+10678726
3725.80+10251195+10443961+11062149+11407277+10952519+10001453+9462170+9906253
3720.66+11014332+12020424+12461143+12416406+12270531+12395400+12818554+13114671
3715.51+12820500+11946527+10724334+8989695+6548948+4227729+3559575+4881616
3710.37+6760397+7870488+8409375+9237638+10487104+11595093+12145669+12190917
3705.23+12049985+12013035+12006424+11551538+10363122+8983611+8449370+9204879
3700.08+10586994+11539614+11660163+11400667+11395613+11812998+12341457+12529613
3694.94+12138667+11409740+10862979+10535688+9795127+8411187+7193447+6630550
3689.80+5639499+3163921+532544+548020+3902990+8240733+11104008+12037927
3684.66+11867576+11353231+10897706+10779013+11064353+11450049+11456271+10903667
3679.51+10189016+9903014+9958191+9263534+6697931+2590841-905668-1381424+1650282
3673.73+6372950+10217645+11379930+9559292+6124689+3372070+2793771+4078142
3668.59+6162185+8480435+10739106+12452455+13330654+13621391+13703780+13734531
3663.44+13810696+14025062+14318228+14537966+14582747+14397660+14093061+13958492
3658.30+13875574+13054744+11164918+9426818+9581309+11782275+14482154+16173921
3653.16+16315645+15032557+12811422+10306510+8001186+6222826+5466936+6071420
3648.02+7556718+9110361+10652424+12624798+14870925+16591840+17391790+17668514
3642.87+17898212+18144058+18374458+18706838+19101444+19226838+18931836+18581996
3637.73+18689152+19359134+20229862+20764936+20596370+19862896+19287716+19583808
3632.59+20611988+21324104+20587128+18031990+14434390+11545707+11063057+13192112
3627.45+16487385+19370840+21301056+22499928+23287340+23881182+24375044+24710956
3622.30+24813722+24661402+24127966+23041170+21643394+20653772+20660540+21643524
3617.16+23140990+24532692+25322410+25528134+25633680+25873490+25977486+25942776
3612.02+26376812+27430556+28113048+27504596+26153652+25501260+26104322+27218906
3606.88+28088494+28838872+29939700+31295108+32209648+32162800+31406686+30772196
3601.73+30928218+31810290+32697562+32895224+32473486+32232156+32754374+33678960
3596.59+34231256+34294524+34476740+35210996+36246496+37086804+37519408+37697568
3591.45+37901588+38200628+38264540+37709900+36667924+35771288+35562096+36175440
3586.31+37535544+39368604+41096904+42183352+42626308+42828300+43048720+43263108
3581.16+43484092+43882588+44518040+45129196+45372892+45255844+45171456+45429500
3576.02+45911192+46343588+46723640+47212732+47782332+48242264+48520592+48710468
3570.88+48902608+49126284+49320436+49303692+48930700+48337720+47916784+48030020
3565.74+48779440+49947596+51121536+52021516+52715648+53384224+53936292+54146344
3560.59+54136032+54388940+55205240+56330552+57258396+57761396+58045848+58405976
3555.45+58844052+59108380+59072868+58953364+59119644+59751240+60692484+61585848
3550.31+62177960+62504664+62738516+62922604+63016848+63151852+63610152+64473776
3545.16+65484716+66353872+67089984+67893264+68803992+69598720+70050792+70172920
3540.02+70132968+70065576+70103392+70446752+71182920+72091976+72885248+73565696
3534.88+74356712+75326216+76288952+77053312+77598080+78006384+78332824+78545384
3529.74+78592048+78503536+78388824+78356880+78556480+79172784+80151416+81053664
3524.59+81572808+82042656+82945960+83993440+84332448+83768552+83189920+83539384
3519.45+84796456+86189904+87096960+87498728+87792768+88380960+89393192+90651928
3514.31+91789384+92454392+92566232+92474320+92692320+93348880+94107160+94726016
3509.17+95381440+96255552+97163464+97832704+98244304+98502840+98720088+99127000
3504.02+99928904+100933856+101685488+101976448+101923872+101729544+101739416
3499.52+102432920+103872808+105439424+106542696+107256560+107905768+108479656
3495.02+108912416+109477200+110362464+111149136+111234640+110704808+110406696
3490.52+111051408+112403760+113594432+114125376+114302488+114632128+115205616
3486.03+115869992+116598672+117391552+118079488+118496456+118680304+118819368
3481.53+119097408+119602184+120298856+121130736+122064552+122902840+123254688
3477.03+122983096+122505232+122410528+122949376+123989544+125099448+125665616
3472.53+125449328+125060800+125347536+126393768+127625680+128682720+129611592
3468.03+130432840+131096688+131677032+132194632+132484664+132528112+132628720
3463.53+133047688+133623488+133930304+133798352+133653248+134158008+135400096
3459.03+136682880+137375872+137608608+137819664+138098080+138352608+138661888
3454.53+139037744+139252112+139198192+139085312+139105664+139270672+139659296
3450.03+140431648+141483536+142363552+142673680+142470816+142252016+142515984
3445.53+143302448+144217520+144888112+145244384+145390272+145461824+145641360
3441.03+146049632+146575488+146984080+147217152+147382352+147517072+147552672
3436.53+147480768+147403888+147461856+147814400+148548256+149452688+150043920
3432.03+150070720+149891504+150028720+150439728+150615264+150428544+150373952
3427.53+150802848+151318256+151237936+150427424+149503104+149270896+150017648
3423.03+151266416+152235056+152552128+152429152+152237408+152203120+152417680
3418.53+152840768+153238176+153379792+153271824+153041552+152754832+152501072
3414.03+152489216+152880480+153591264+154325008+154681312+154374848+153550016
3409.53+152783200+152555056+152805344+153140352+153319440+153368848+153376720
3405.03+153420192+153569520+153858720+154250096+154662320+154948864+154925312
3400.53+154578144+154187664+154028848+153951456+153539904+152736992+152071984
3396.03+152069088+152593936+152998224+152894032+152623952+152807984+153496304
3391.53+154012928+153789920+153093840+152634320+152651344+152822912+152895120
3387.03+152949104+153034208+152983424+152712352+152432192+152420432+152677504
3382.53+152875344+152695888+152188432+151692032+151481152+151626496+152090928
3378.03+152666432+152977344+152869680+152629344+152559056+152608176+152669056
3373.53+152838544+153162496+153483584+153723856+153914496+153938864+153689696
3369.03+153379216+153259504+153211904+152993392+152602768+152113360+151493456
3364.53+150838928+150395648+150250112+150321008+150582800+150942624+151111280
3360.03+150960736+150706240+150516592+150357904+150283280+150366896+150318944
3355.53+149787312+149078464+148933296+149537520+150255376+150422880+150055248
3351.03+149740896+149984624+150640976+151046032+150803952+150277760+150075280
3346.53+150307328+150599504+150558608+149952848+148747120+147301328+146308672
3342.03+146274064+147093232+148208288+149033008+149278464+149088112+148854832
3337.53+148819344+148906912+149016432+149171280+149307632+149211072+148849040
3333.03+148473664+148246960+148065104+147861344+147755040+147786512+147834976
3328.53+147872816+148018432+148270832+148499632+148655008+148748208+148677504
3324.03+148347040+147916992+147721632+147917248+148271792+148313504+147804336
3319.53+147103424+146814896+147015952+147178656+146957440+146578960+146359040
3315.03+146341248+146578272+147237728+148236448+149142544+149596912+149593744
3310.53+149349920+149110352+149001248+148981216+149040064+149371584+150091184
3306.03+150906544+151349648+151201008+150492656+149406272+148397312+148032528
3301.54+148397312+148985776+149315904+149337040+149195024+149002496+148903728
3297.04+149022672+149276544+149400048+149153200+148486784+147692656+147346880
3292.54+147800864+148672128+149142400+148803168+147983520+147281616+147006832
3288.04+147030448+147012080+146731696+146244528+145674480+144996608+144200016
3283.54+143545072+143345168+143481152+143418880+142809072+141919232+141318384
3279.04+141183504+141067344+140448848+139391824+138457216+137977984+137680896
3274.54+137174464+136514368+136004256+135665584+135273824+134751248+134133312
3270.04+133278176+132088552+130953960+130415024+130332992+129932352+128791096
3265.54+127278040+125870992+124628352+123546520+122901488+122809376+122814696
3261.04+122340136+121401544+120532088+119999136+119417696+118312592+116876000
3256.54+115835448+115601376+115833688+115865104+115294560+114183136+112957384
3252.04+112122240+111776432+111501776+110945000+110292040+109865664+109567944
3247.54+109116080+108559904+108159904+107963912+107802104+107516048+107018944
3243.04+106318832+105573440+104925480+104321424+103656384+102971824+102373576
3238.54+101873192+101414968+100890224+100208424+99559784+99378488+99721520
3234.04+99985072+99623096+98775824+97869400+97038720+96304488+95804576+95509320
3228.90+95232840+95120592+95561328+96401672+96880824+96544168+95672504+94716192
3223.75+93856296+93150592+92616704+92136456+91608728+91103584+90584176+89790424
3218.61+88785936+88238856+88666776+89653344+90259640+90090016+89562768+89236520
3213.47+89194064+89098536+88573160+87532704+86335224+85653432+85945064+86883944
3208.33+87499816+87105680+85988536+84961928+84408728+84089952+83736120+83364248
3203.18+83073504+82900680+82846152+82755056+82356312+81748736+81539200+82082568
3198.04+82837440+82927728+82129960+80975768+80093744+79718640+79663640+79550488
3192.90+79186280+78728696+78394712+78161304+77969760+77987536+78344048+78744464
3187.76+78684040+78027904+77186648+76659352+76497048+76315664+75835976+75266944
3182.61+75004648+75096080+75236104+75232232+75193792+75258528+75335160+75189512
3177.47+74740776+74247024+74111320+74442240+74900000+75072176+74885984+74551536
3172.33+74253424+74041144+73925600+73928544+74002056+73976576+73695616+73235312
3167.19+72892048+72895512+73217832+73649328+73952288+73991776+73909056+74044208
3162.04+74474264+74818448+74740376+74428096+74240480+74178832+74017392+73712824
3156.90+73410296+73214104+73132616+73123016+73077800+72886048+72509760+72031056
3151.76+71678256+71689976+71925224+71835120+71147480+70372560+70172256+70402536
3146.61+70337408+69744120+69201312+69266280+69766888+70103664+69946920+69390352
3141.47+68607816+67685064+66763780+66099164+65869340+66006512+66169088+65951352
3136.33+65319136+64780632+64792460+65116104+65194500+64981780+64795644+64601692
3131.19+64173600+63805340+64028436+64671696+64897540+64236684+63110432+62295792
3126.04+62142264+62303888+62143860+61404116+60365120+59397516+58640568+58189548
3120.90+58197492+58682432+59456224+60211336+60544508+60195688+59439920+58860480
3115.76+58637392+58530088+58501876+58711708+58934548+58679648+57926392+57173140
3110.62+56817852+56886152+57202528+57481612+57442156+57048968+56485920+55888088
3105.47+55307880+54867204+54690936+54738136+54816288+54738668+54486116+54292424
3100.33+54408508+54708392+54780324+54486512+54125592+54032784+54310672+54887172
3095.19+55499284+55752608+55498092+54990324+54483076+53950696+53383032+52994284
3090.05+52930596+53079108+53302820+53608760+53979912+54247744+54223416+53894388
3084.90+53480828+53271500+53318816+53361104+53156408+52782364+52439684+52102212
3079.76+51632612+51140932+50947680+51215128+51842704+52626472+53238072+53203848
3074.62+52321068+51072292+50252404+50142348+50362200+50432540+50176784+49738612
3069.48+49502076+49795872+50379748+50587072+50211892+49764732+49602464+49427680
3064.33+48981604+48552372+48473916+48645728+48810692+48809372+48496732+47913888
3059.19+47521764+47703648+48132716+48137720+47627204+47123920+46959348+46889384
3054.05+46560020+45978228+45403308+44998472+44752188+44667160+44811160+45149072
3048.91+45473220+45586192+45428448+45029676+44512776+44123516+44034160+44124172
3043.76+44194440+44267992+44464868+44697304+44773908+44637676+44279708+43653796
3038.62+42909176+42436836+42388844+42420404+42222660+42065160+42399756+43098432
3033.48+43514480+43308880+42837108+42625916+42781216+43076464+43346764+43539740
3028.34+43549212+43314140+42991768+42796732+42740848+42737164+42855652+43205360
3023.19+43620384+43702208+43236664+42464180+41885988+41824336+42157844+42523744
3018.05+42758468+42976516+43236008+43396616+43356756+43177084+42864856+42355712
3012.91+41797788+41534392+41686712+41993120+42185188+42291940+42476544+42723096
3007.77+42803316+42566744+42247112+42343356+43037408+43848780+44096272+43637880
3002.62+42942580+42537160+42630124+43173136+44001796+44872232+45559068+46002460
2997.48+46296172+46513652+46615216+46597040+46591900+46679768+46716660+46601912
2992.34+46577280+46904136+47352944+47481964+47351624+47474980+48100284+48973556
2987.20+49743620+50247516+50536932+50901744+51590624+52343520+52627788+52489616
2982.05+52621192+53389512+54377968+55062000+55407344+55657496+55975536+56419880
2976.91+56937248+57352000+57578668+57769472+58164776+58924472+60071348+61360880
2971.77+62339052+62843496+63255932+63943980+64717796+65209248+65483520+65880904
2966.62+66513148+67259288+68034432+68779896+69371984+69743856+69955048+70083152
2961.48+70193560+70361912+70615120+70884088+71105112+71240088+71177464+70815208
2956.34+70246832+69674616+69150872+68605416+68045472+67514536+66986920+66475384
2951.20+66108868+65909080+65709452+65463584+65414948+65728592+66179456+66440952
2946.05+66534420+66760328+67242400+67723376+67872376+67667120+67379656+67231224
2940.91+67228168+67274192+67300920+67284024+67321536+67663648+68429608+69318464
2935.77+69846784+69860760+69587008+69237128+68830344+68410456+68175600+68273400
2930.63+68548992+68610880+68236264+67662592+67327792+67332576+67397080+67309296
2925.48+67103952+66843168+66558748+66380728+66372484+66321300+66017148+65552356
2920.34+65061756+64468996+63828976+63490124+63523316+63444584+62887960+62104848
2915.20+61452932+60870568+60201656+59574968+59140836+58810012+58471148+58167428
2910.06+57925736+57669496+57365104+57055984+56761204+56443304+56007560+55288568
2904.91+54237164+53129188+52338764+51940296+51807580+51984804+52504144+52911844
2899.77+52560820+51498988+50621124+50705200+51559724+52300060+52293464+51711576
2894.63+51224372+51216848+51372632+51112288+50325244+49438100+48838652+48572944
2889.49+48564372+48723792+48847084+48787748+48717852+48858300+49044512+48952336
2884.34+48620144+48327964+48148532+48060732+48269952+48939672+49774892+50301756
2879.20+50419472+50344248+50221392+50038636+49771856+49442452+49132620+48977120
2874.06+49017480+49124044+49162156+49087908+48831660+48336004+47750568+47316576
2868.92+46998744+46499288+45662960+44687696+43948640+43687216+43828776+44059556
2863.77+44139300+44044956+43778388+43290596+42721648+42358472+42211744+41983396
2858.63+41607064+41362884+41361964+41355388+41192044+41068128+41154584+41315964
2853.49+41306500+41035800+40606044+40226932+40054476+40041604+39970160+39687936
2848.35+39265140+38885744+38654720+38542768+38490792+38444596+38252204+37675264
2843.20+36680644+35633528+35000808+34903320+35084408+35239564+35215580+34992816
2838.06+34639716+34271864+33982788+33782024+33579440+33264012+32890770+32751102
2832.92+33077318+33700960+34164852+34167204+33788440+33350032+33119866+33073520
2827.78+32940644+32583950+32225222+32127466+32236476+32332926+32357922+32360148
2822.63+32327824+32278354+32338686+32572432+32830424+32898888+32729502+32482906
2817.49+32342350+32295630+32206900+32107708+32162406+32272202+32079834+31552684
2812.35+31150176+31196346+31484916+31649232+31547450+31167440+30603760+30193586
2807.20+30257782+30700140+31175942+31520500+31681678+31505192+31012840+30629130
2802.06+30660778+30846872+30844386+30838500+31173720+31675136+31893768+31784386
2796.92+31587222+31269990+30675164+30029642+29722574+29715912+29694604+29649118
2791.78+29799046+30107428+30340416+30453910+30522818+30496536+30350876+30261050
2786.63+30369704+30567412+30678432+30680786+30668622+30732050+30888850+31038082
2781.49+31051946+30957514+30879958+30837850+30774028+30736364+30810384+30972818
2776.35+31173590+31422384+31667940+31807804+31894420+32101428+32434746+32723876
2771.21+32907524+33066582+33217796+33276712+33184148+32943002+32608036+32367608
2766.06+32481206+33024952+33780976+34448968+34896248+35177312+35386472+35582276
2760.92+35806020+36074888+36301432+36368172+36384304+36670808+37329988+38019024
2755.78+38387112+38499060+38586736+38662600+38671920+38774432+39170216+39837648
2750.64+40648340+41514144+42249740+42580156+42512448+42483904+42929300+43770624
2745.49+44533176+44935288+45235564+45879456+46888464+47832556+48450976+49006792
2740.35+49819484+50737272+51361540+51644496+51974636+52727004+53921880+55291876
2735.21+56555268+57632028+58659380+59746472+60795112+61697012+62628484+63885680
2730.07+65419996+66804204+67781248+68591040+69599112+70820936+72061976+73351344
2724.92+74950320+76938408+79063928+81067312+82973424+84976816+87136696+89323312
2719.78+91412896+93416864+95403680+97417400+99522912+101807120+104252288
2715.28+106732584+109230392+111896440+114794728+117743736+120552664+123265200
2710.78+126067512+129076272+132273296+135536112+138750976+141973488+145394800
2706.28+149044208+152716096+156270736+159773776+163268432+166703600+170186048
2701.78+173945312+177906816+181694944+185197296+188779744+192760912+196999088
2697.28+201183056+205289744+209505856+213844880+218098224+222174080+226271216
2692.78+230582928+234983904+239177408+243090048+246957360+251060464+255507120
2688.28+260196288+264906592+269513984+274145536+278974208+283880832+288564352
2683.78+292965568+297286560+301594880+305744224+309738112+313860672+318306720
2679.28+322936256+327504768+331973248+336426464+340820736+345029792+349142656
2674.78+353499392+358294912+363292608+368080896+372524224+376815424+381176704
2670.28+385642240+390121600+394576608+399115424+403881056+408821856+413665440
2665.78+418165824+422303808+426237472+430197760+434452032+439129984+444035040
2661.28+448803552+453311040+457749280+462310496+466932192+471396480+475595104
2656.78+479696640+484027488+488705600+493444224+497859904+501912544+505903488
2652.28+510080608+514440448+518887072+523427456+528140480+533008928+537857728
2647.78+542547520+547179776+551936000+556708800+561157184+565199808+569163840
2643.29+573336640+577649088+581931136+586221632+590681216+595373632+600247552
2638.79+605203520+610115200+614845376+619293568+623432320+627377600+631404288
2634.29+635776832+640519168+645380672+650020992+654234496+658122048+662057472
2629.79+666390592+671150656+676100736+680987392+685618112+689882048+693880832
2625.29+697905856+702107968+706363072+710545152+714676544+718711680+722547328
2620.79+726375936+730651520+735478720+740366208+744815168+748868800+752883200
2616.29+757031936+761255232+765481024+769670912+773755456+777716288+781658880
2611.79+785702720+789804864+793783552+797548032+801265152+805223296+809476736
2607.29+813722240+817647936+821332480+825115072+829104064+833064128+836780352
2602.79+840300928+843785984+847341888+851026240+854824832+858581376+862130304
2598.29+865463040+868655232+871736448+874744704+877810112+881045632+884447488
2593.79+887934656+891397056+894724224+897862784+900817792+903564800+906124224
2589.29+908698944+911516992+914553792+917668608+920850752+924020352+926824448
2584.79+929071104+931129856+933473664+936074880+938605568+940935104+943146880
2580.29+945389184+947931008+950948992+954127296+956903808+959157696+961217856
2575.79+963222848+964992128+966491584+967976640+969669056+971631424+973858240
2571.29+976256832+978609152+980729856+982572096+984164608+985592704+987003008
2566.79+988490368+990023296+991577792+993183104+994802752+996354944+997877568
2562.29+999481472+1001173760+1002862976+1004490496+1005992960+1007302144
2558.43+1008510656+1009844800+1011335616+1012730368+1013873920+1014918144
2554.58+1016042560+1017194112+1018229760+1019135936+1020001344+1020906432
2550.72+1021918144+1023091968+1024408384+1025771008+1027080704+1028278720
2546.86+1029318400+1030155840+1030794240+1031345024+1032012352+1032989312
2543.00+1034289152+1035652160+1036693184+1037260608+1037619328+1038201024
2539.15+1039189184+1040417536+1041615424+1042624256+1043414784+1044060800
2535.29+1044682432+1045338368+1045990080+1046659072+1047503936+1048653312
2531.43+1049999104+1051253120+1052182912+1052773184+1053183232+1053611328
2527.58+1054218496+1055138624+1056392832+1057708096+1058607488+1058871488
2523.72+1058797632+1058879936+1059378112+1060253568+1061316608+1062329152
2519.86+1063152000+1063848000+1064485312+1064902272+1064936832+1064811968
2516.01+1064992512+1065681600+1066646144+1067511808+1068091136+1068476288
2512.15+1068903616+1069524928+1070302784+1071104256+1071790720+1072229632
2508.29+1072392832+1072444288+1072558592+1072702336+1072755008+1072759488
2504.44+1072810560+1072855168+1072830208+1072854784+1073076224+1073418176
2500.58+1073674880+1073741824+1073637248+1073399552+1073077248+1072776000
2496.72+1072610048+1072555840+1072382080+1071819072+1070871232+1069893184
2492.86+1069249408+1068905856+1068445376+1067539392+1066360768+1065429632
2489.01+1065003520+1064757120+1064212992+1063334464+1062420096+1061507904
2485.15+1060302080+1058738944+1057230720+1056141504+1055296320+1054297728
2481.29+1053131648+1052091456+1051180352+1050005248+1048358976+1046527296
2477.44+1044859008+1043361984+1041884160+1040361920+1038728128+1036896512
2473.58+1034968448+1033164672+1031498496+1029803648+1028049280+1026331968
2469.72+1024615040+1022756480+1020744576+1018687040+1016650048+1014638080
2465.87+1012634240+1010615936+1008596288+1006637376+1004741120+1002845952
2462.01+1000959744+999133376+997315200+995400832+993383936+991296000+989106816
2457.51+986871360+984779520+982890752+981014976+978989696+976894016+974918080
2453.01+973162816+971547776+969796544+967676096+965356864+963339136+961878208
2448.51+960706368+959424064+957923648+956323520+954697216+953009280+951237568
2444.01+949459520+947761088+946096256+944334464+942509696+940852608+939493760
2439.51+938318080+937189312+936090240+934952256+933609152+932038592+930463232
2435.01+929105024+927972352+926936512+925922816+924985088+924176128+923374720
2430.51+922374848+921233216+920307968+919756288+919241664+918390784+917313600
2426.01+916396416+915776384+915278464+914708672+913991424+913139072+912248640
2421.51+911422784+910637568+909810752+908994496+908343168+907884480+907454144
2417.01+906861120+906048128+905108608+904201408+903425408+902766592+902163264
2412.51+901560576+900915520+900245632+899640896+899099072+898431680+897514816
2408.01+896533888+895735488+895058368+894289536+893441856+892702400+892096640
2403.51+891482240+890758592+889892864+888840448+887613952+886329344+885089984
2399.01+883907328+882797888+881814016+880925056+879988672+878918976+877778816
2394.51+876633024+875382336+873872640+872198976+870725376+869693632+868906624
2390.01+867925568+866518080+864793472+862991744+861270272+859681024+858248000
2385.51+856995712+855809600+854368320+852427648+850208384+848235456+846718528
2381.01+845341056+843717440+841802176+839760640+837702400+835647168+833580096
2376.51+831470784+829340992+827297728+825387584+823456256+821297472+818937216
2372.01+816637568+814590912+812725568+810853184+808881344+806816320+804672704
2367.51+802488448+800296832+798010688+795520512+792978432+790698176+788702080
2363.01+786657920+784355264+781911360+779479168+777108288+774874496+772768384
2358.51+770511872+767878144+765104192+762632256+760548480+758595136+756641792
2354.02+754817856+753197504+751575872+749641920+747334848+744907648+742577664
2349.52+740255232+737767616+735167424+732576960+729940288+727202112+724554944
2345.02+722222784+720148736+718064512+715752256+713166720+710465728+707880576
2340.52+705442496+702961216+700368320+697827328+695424064+693064832+690707200
2336.02+688375552+685969088+683405056+680866880+678557312+676357696+674074624
2331.52+671825280+669816640+667933440+665874240+663552512+661086528+658524736
2327.02+655837056+653148416+650736960+648682688+646669760+644320512+641678720
2322.52+639141504+636933760+634907456+632852352+630702336+628417984+625961088
2318.02+623435968+621021248+618724480+616393280+613946688+611462144+609068480
2313.52+606857280+604819264+602823360+600738432+598560832+596331584+593986112
2309.02+591442240+588797376+586277760+583992640+581839872+579652032+577343488
2304.52+574907520+572382208+569889408+567597824+565563200+563614208+561493120
2300.02+559112256+556608896+554180992+551904896+549686400+547359872+544880128
2295.52+542396608+540086336+537971648+535947584+533886304+531643840+529114016
2291.02+526408032+523834368+521565056+519444160+517237056+514956448+512809344
2286.52+510865504+508900064+506640416+504135456+501727328+499624768+497645344
2282.02+495488544+493095520+490627840+488228256+485934784+483710464+481515680
2277.52+479405280+477484512+475667040+473660800+471380608+469136736+467191392
2273.02+465352672+463289824+461033152+458860160+456850144+454854496+452815136
2268.52+450828032+448895776+446829216+444505824+442119232+440003936+438237792
2264.02+436545120+434648992+432554432+430407392+428234624+425997440+423790400
2259.52+421760352+419863264+417929600+415973984+414165664+412443360+410466944
2255.02+408123008+405793376+403904640+402422336+400974752+399256672+397176256
2250.52+394837504+392524192+390512128+388836032+387341664+385883616+384305344
2246.02+382439072+380341088+378310592+376510720+374808448+373080128+371358976
2241.52+369624384+367775040+365854432+363996128+362218176+360482816+358818112
2237.02+357174432+355392384+353474976+351612960+349870816+348152992+346492928
2232.52+345008128+343583776+341960864+340125952+338316128+336677984+335131712
2228.02+333520576+331750816+329885024+328135520+326666304+325384000+324043616
2223.52+322529920+320932864+319395552+317982720+316653216+315288992+313804480
2219.02+312229216+310673216+309202848+307789536+306359744+304882656+303392320
2214.52+301907200+300371680+298767392+297218368+295846592+294548896+293099200
2210.02+291466944+289841632+288337312+286870912+285393376+284067552+283047168
2205.52+282147232+280939968+279268032+277469216+275951072+274688288+273396032
2201.02+272044512+270872352+269922912+268909760+267601152+266083344+264583088
2196.52+263212016+261928816+260660336+259416592+258295312+257334480+256376256
2192.02+255198800+253784352+252342304+251061344+249946384+248886256+247791248
2187.52+246644320+245480112+244301504+243026880+241607248+240190128+239032384
2183.02+238173088+237322704+236201744+234885616+233674400+232681664+231724240
2178.52+230603904+229328816+228012288+226722032+225496944+224419952+223558704
2174.02+222869552+222177488+221270432+220049280+218649632+217349104+216303136
2169.53+215417312+214531456+213621744+212757056+211949920+211137408+210258240
2165.03+209282432+208212096+207107680+206069632+205138208+204242944+203263904
2160.53+202143152+200945760+199808992+198834640+197991264+197127456+196102368
2156.03+194949360+193886528+193102864+192532304+191944560+191242880+190522016
2151.53+189821360+189022992+188089360+187192240+186482832+185882544+185213024
2147.03+184430000+183618464+182838400+182042736+181153040+180194480+179326688
2142.53+178659056+178076592+177374512+176516688+175605728+174672304+173712256
2138.03+172861040+172280272+171879200+171377968+170640960+169761776+168869872
2133.53+168019568+167248864+166594128+166052528+165570736+165042448+164318432
2129.03+163350736+162344864+161617872+161239456+160945264+160452128+159751696
2124.53+159008336+158267072+157421200+156470464+155640112+155131280+154858016
2120.03+154529104+153945360+153146304+152339632+151727040+151324208+150933216
2115.53+150397024+149820496+149373248+148981936+148446880+147774912+147126064
2111.03+146530112+145922176+145351792+144885088+144417232+143822560+143193904
2106.53+142716368+142403760+142105104+141656176+140937024+139940560+138868224
2102.03+138004352+137418048+136928880+136392160+135883184+135558800+135419056
2097.53+135277536+134940480+134389424+133776816+133249656+132825304+132448328
2093.03+132058400+131588392+130990400+130327376+129750960+129324280+128936696
2088.53+128457632+127921240+127488496+127243312+127098920+126896024+126546312
2084.03+126081040+125600856+125171576+124724216+124118160+123356240+122664056
2079.53+122237952+121984888+121626840+121039376+120380632+119895848+119653960
2075.03+119456664+119043312+118392952+117745776+117272464+116889328+116500696
2070.53+116212000+116107776+115994456+115594432+114901592+114166416+113604072
2066.03+113229624+112924776+112562520+112053672+111383816+110680640+110177944
2061.53+109995072+109963464+109846816+109665320+109591800+109565360+109309176
2057.03+108720432+107986128+107313480+106793800+106462232+106290920+106152528
2052.53+105937640+105592120+105030768+104217360+103354656+102760896+102517816
2048.03+102435752+102345056+102236640+102145536+102024704+101717248+101055304
2043.53+100088112+99151568+98591224+98470592+98619280+98827512+98913752
2039.03+98761648+98396368+97906216+97326912+96707312+96174808+95780048+95407984
2033.89+94972544+94564928+94325320+94265120+94242504+94042128+93593616+93172936
2028.75+93166336+93526712+93741584+93453208+92799992+92057896+91307056+90592096
2023.60+90078984+89875896+89887992+89930464+89863136+89615848+89187480+88648232
2018.46+88096912+87649240+87419664+87396040+87362608+87060712+86423240+85615344
2013.32+84930024+84642136+84802640+85104208+85123376+84764288+84318776+84048680
2008.18+83895336+83663352+83324720+82992448+82694512+82345056+81931232+81589680
2003.03+81434096+81392736+81313488+81156056+80964392+80722944+80381696+79980568
1997.89+79607864+79303184+79093744+78996384+78876968+78494320+77816320+77139344
1992.75+76775960+76769816+76928256+76947904+76590016+75937464+75390296+75215408
1987.61+75282696+75395640+75559712+75721536+75620744+75170960+74652016+74358440
1982.46+74356568+74613056+74983824+75096608+74650016+73841424+73182624+72926976
1977.32+72924040+72928048+72854840+72757896+72708160+72694424+72640168+72500968
1972.18+72251664+71824856+71222496+70640032+70291728+70129496+69904976+69498600
1967.04+69089496+68981280+69255632+69595928+69608040+69313408+69071656+69009760
1961.89+68895296+68608352+68305864+68070352+67829680+67655136+67731104+68006224
1956.75+68201544+68131016+67811448+67354520+66923884+66641584+66459300+66258552
1951.61+66060608+65941912+65860832+65744404+65637544+65547572+65295612+64742636
1946.47+64083420+63696324+63710532+63841460+63734696+63400772+63211852+63439404
1941.32+63915292+64238016+64237352+64097232+64048888+64057392+63896836+63503532
1936.18+63105792+62973184+63148400+63512160+63914628+64160184+64049152+63603116
1931.04+63097956+62751780+62513156+62238204+61940056+61752068+61727260+61764144
1925.90+61736676+61598844+61325992+60878920+60357960+60068168+60240632+60767532
1920.75+61311940+61488884+60937668+59676884+58494060+58375772+59276000+60116152
1915.61+60236260+60078240+60268608+60726688+61001720+60912204+60576728+60209348
1910.47+60033564+60100516+60182168+60063532+59841500+59728308+59706968+59591796
1905.33+59332984+59104404+59105204+59341724+59609424+59731496+59719688+59652360
1900.18+59514404+59281960+59078432+59098440+59399636+59797760+59974716+59788356
1895.04+59490548+59444160+59625196+59694640+59512680+59192784+58685348+57860840
1889.90+57005552+56697808+57093312+57766560+58293516+58560428+58592084+58487704
1884.75+58454324+58605996+58788944+58822332+58754360+58731180+58774104+58818484
1879.61+58818484+58756356+58662688+58641760+58769468+58980788+59145216+59222996
1874.47+59250424+59233864+59160056+59065052+58944484+58563604+57589256+56092104
1869.33+54755996+54296924+54761544+55676808+56675836+57570188+58098560+58121204
1864.18+57933148+57945068+58154180+58297360+58328352+58394712+58494460+58493532
1859.04+58374712+58260540+58281200+58492208+58807756+59023052+59054580+59099236
1853.90+59346892+59636992+59650376+59383472+59147072+59118048+59128784+58951900
1848.76+58604140+58349148+58433388+58659640+58193388+56241232+53307052+51382932
1843.61+52085308+54686964+57074912+58208220+58570364+58797288+58896784+58742312
1838.47+58459620+58185968+57966788+57910772+58097504+58393124+58567844+58515256
1833.33+58293656+57991420+57515640+56588352+55266740+54363684+54799364+56454812
1828.19+58240408+59192520+58978932+57742860+56166472+55346896+55850644+57075180
1823.04+58072336+58591684+58935072+59245128+59383472+59246184+58878372+58400144
1817.90+57958312+57664864+57532848+57516960+57594416+57770132+58025324+58242652
1812.76+58192196+57736240+57108536+56813356+57131568+57801124+58300144+58398820
1807.62+58336836+58432728+58664408+58789472+58729328+58534592+58114192+57393436
1802.47+56623156+56087872+55650748+55098636+54731792+55038200+55900652+56655980
1797.33+56873044+56711832+56604496+56700056+56466200+55055524+52499792+50301228
1792.19+50116488+51869780+54049312+55596372+56473084+56868944+56920436+56930228
1787.05+57006608+56696484+55690828+54579072+54241260+54786008+55629976+56225224
1781.90+56261876+55695064+54978424+54772784+55211856+55885572+56441984+56666436
1776.76+56361652+55786344+55574812+55476528+54073768+50796932+47432544+46508904
1771.62+48445440+51454888+53711060+54351124+53404840+51988368+51792264+53335992
1766.48+55313696+56291516+56189492+55696380+54984768+53644180+51739168+50403232
1761.33+50910320+53052948+55166880+56006364+55718480+54902640+53850108+53142136
1756.19+53661232+55229312+56525216+56864844+56586232+55527456+53046080+50007104
1751.05+48761504+50127968+52299668+53606780+54235976+54907804+55620056+56108912
1745.91+56339024+56276700+55937436+55710804+56120820+57211796+58216696+57934472
1740.76+55926452+53537792+52957680+54709976+57130508+58622552+58721912+56972188
1735.62+52705736+46700984+41989836+41735872+46044204+51870304+55980560+57185848
1730.48+56513972+55946560+56626336+58110612+59322248+59767940+59689872+59460200
1725.33+59168932+58770920+58399220+58332060+58703224+59356036+59936940+60052524
1720.19+59296540+57177904+53425720+49024204+46625888+48206408+52115028+54936504
1715.05+55826436+56680332+58692632+60924940+62376736+63152644+63406872+63086940
1709.91+62751116+63116804+63894444+64195912+63742532+62994680+62621184+63115612
1704.76+64414796+66054764+67811712+69170960+68286576+63503400+56666700+53396648
1699.62+57587804+66451456+74092512+76979424+74923216+70810808+69836000+75178040
1694.48+83967040+91188576+95375512+98228256+101178936+104120096+106933472
1689.98+110277248+114394512+118672968+122795728+126778704+129445008+128818856
1685.48+125156824+122528544+125497016+133858696+143486512+151389744+157146096
1680.98+161517696+165519664+169892592+174621824+179202016+183194784+186082896
1676.48+187404528+188024512+190543696+196749984+204897392+211581776+215685392
1671.98+218857488+222618880+226326480+228890944+231384160+236217584+243854512
1667.48+252162080+259189424+264908336+270141024+274966592+278763584+281587072
1662.98+284961056+290646816+298468512+306397184+312996864+318563808+323864960
1658.48+329059712+334052384+338765984+342784640+345414816+345916896+343446912
1653.98+338155392+333539840+335715296+346530912+359995008+369507104+373557856
1649.48+373991072+372909440+371485920+370079520+368913280+369042016+372015968
1644.98+377567264+382942176+385935424+387037728+387830400+388659200+388960256
1640.48+388707200+388092224+386718112+384305184+381131200+376828832+370331744
1635.98+362469984+356982368+356279488+357516032+356210208+351304032+344662208
1631.48+337840032+330883904+323292800+314701248+305072512+295107872+285990976
1626.98+278257344+271332864+264169760+255914592+246531056+237305152+229958528
1622.48+224703008+220123776+215108992+209751584+204522096+199290656+193006192
1617.98+184506656+174656912+167372272+165986112+168414080+169840560+168596528
1613.48+166179616+163799904+161433376+159292272+157868016+156872032+155694432
1608.98+154352000+153030608+151531920+149851152+148500336+147836496+147670560
1604.48+147597536+147286432+146645440+145961760+145544576+145263824+144867136
1599.98+144502128+144400128+144432672+144423584+144420384+144341424+143940928
1595.48+143373136+143169376+143515872+144114448+144731376+145355648+145930176
1590.99+146358624+146667248+146945568+147343856+148132896+149420768+150917200
1586.49+152314336+153618256+154823952+155737920+156445088+157371824+158660368
1581.99+160083488+161562848+163116880+164534176+165708544+166630880+166441792
1577.49+163820080+159567088+157704640+161510320+168806576+174815280+177802816
1572.99+179242224+180549888+181347488+180699568+178967568+177958320+179244064
1568.49+182473328+185869488+188065440+188848960+188761872+188688416+189393232
1563.99+190868672+192325552+192807008+191271056+186637008+179057072+171115056
1559.49+166198544+165408320+167938320+173259232+180025200+184955584+185679952
1554.99+183495104+182108672+183670096+186843776+189093072+189238560+187784320
1550.49+186170992+185694976+186465696+187466544+187679568+186697312+184400944
1545.99+180965616+177385584+174890480+173073456+169859408+164313152+158261648
1541.49+153766096+149922160+144793808+139842768+139218000+143716736+149093392
1536.99+151455296+150455920+147453168+143261952+138451728+134551616+133223600
1532.49+134142496+135224688+135143312+134269808+133180416+131681432+129752184
1527.99+128094560+126959176+125641160+123930968+122871736+123158608+123687688
1523.49+122613424+119230768+114589720+111038784+110942296+114628592+119559672
1518.99+122416528+121972064+119942728+119189216+120778416+123314200+125198088
1514.49+126021056+125741872+124279416+122308480+121001464+120497320+119869544
1509.99+118643400+116919128+114208016+109753896+104187880+99885560+99309632
1505.49+103061872+109362064+115280552+118731120+119667040+119626840+120064960
1500.99+120957832+121138640+120081320+118923584+118979160+119566752+119034056
1496.49+117870616+118669696+122290752+126435600+129043296+130322584+131007384
1491.99+130857528+129744520+128860608+129732344+132473552+135745616+138316336
1487.49+140238912+142504304+145674336+149207344+152319456+154912864+157304848
1482.99+159608176+161833760+164198784+166863616+169680192+172553536+175669936
1478.49+178932288+181652048+183488352+185336208+188313136+191898512+194307936
1473.99+194881088+195097392+197075216+201615360+207827568+214065936+218994000
1469.49+222277088+224479168+226289680+227947664+229231504+229702448+229375280
1464.99+229509184+231723232+235644864+239014112+240760576+242027808+243715968
1460.49+245035168+245194896+244365584+242308432+238520992+234790464+235048592
1455.99+240515472+247611696+252676288+255261792+256425040+256671232+256227056
1451.49+255774976+255874096+256218768+255996432+254847616+253382080+252779024
1446.99+253599808+255054608+255846512+255550912+254738688+253969504+253260048
1442.49+252521232+251845984+251131696+250023104+248427488+246390768+243236624
1437.99+237994288+231484176+226926800+226641280+228721568+229455568+227617056
1433.49+224462864+221161888+217854816+214494864+211125872+207710336+204561904
1428.99+202283600+200696352+198826736+196251008+193364384+190349952+187078912
1424.49+183870544+181160752+178749360+176312720+173858272+170812128+166060576
1419.99+160053504+155562240+154647936+155918208+156766096+156546672+156115248
1415.49+155838384+155327984+154407952+153387808+152582992+152030896+151576448
1410.99+151066624+150509808+150049728+149782208+149699984+149702064+149520912
1406.50+148798352+147521200+146280384+145773920+146007696+146285376+146043008
1402.00+145328624+144325440+142846256+140723200+138383120+136459712+134992080
1397.50+133556152+131887920+129799704+127043392+123989816+121859128+121333640
1393.00+121492920+120987288+119617992+118085200+116755568+115246408+112950168
1388.50+109745208+106460480+104465240+104259312+104833720+104967576+104473240
1384.00+103759856+102979120+102166344+101569544+101271472+100940624+100308224
1379.50+99521976+98887568+98544256+98388144+98108720+97445056+96530144+95809816
1374.35+95607544+95976008+96860728+98112360+99444480+100596568+101433480
1369.85+101888464+102035784+102151480+102389256+102525240+102311936+101813056
1365.35+101104480+100069880+98831424+97913640+97589104+97508856+97371288
1360.85+97433872+97972992+98680680+98990536+98698096+98004568+97209864+96539592
1355.71+96088408+95779376+95460400+95097280+94795928+94593608+94343776+93912848
1350.57+93430720+93160152+93118024+93063648+92901184+92765264+92675088+92468800
1345.43+92185568+92118304+92351872+92629064+92718152+92555464+92058576+91219496
1340.28+90353200+89855064+89732768+89719064+89691104+89690296+89703072+89735184
1335.14+89918632+90274696+90519504+90339488+89780880+89189632+88845848+88776512
1330.00+88888016+89096128+89297920+89370072+89310816+89274272+89374512+89549992
1324.86+89705616+89820120+89873200+89876296+89941752+90059624+89922528+89341864
1319.71+88669328+88344968+88212536+87798408+87080584+86477456+86224800+86213128
1314.57+86276856+86318720+86316440+86408216+86749344+87203136+87429600+87289992
1309.43+86916560+86473296+86129808+86098008+86397896+86683040+86611376+86307448
1304.29+86226016+86586552+87118432+87401400+87350264+87254152+87367712+87622392
1299.14+87810624+87868232+87844872+87793568+87820432+88056224+88456968+88783920
1294.00+88902800+88953432+89166120+89634928+90265952+90824024+91088120+91125232
1288.86+91310408+91898344+92684648+93288704+93640192+93962800+94376368+94782872
1283.72+95147008+95637328+96400200+97308568+98081592+98643304+99210416+99963472
1278.57+100782976+101472120+102136072+103076336+104333328+105567080+106438136
1274.07+106973976+107547208+108553264+110072120+111791208+113325944+114575296
1269.57+115677400+116765368+117991800+119607512+121695584+123919360+125829880
1265.07+127351336+128759344+130277952+131925736+133686160+135666800+138040912
1260.57+140814272+143710416+146430624+149024736+151780272+154772144+157808256
1256.07+160800800+163875136+167108160+170459296+173951600+177643376+181425168
1251.57+185085216+188587408+192104608+195762336+199509504+203275520+207118048
1247.08+211106272+215143152+219077456+223016496+227297968+232110448+237255216
1242.58+242373184+247281808+252067200+256957952+262112896+267473168+272884640
1238.08+278401504+284289280+290609536+296993280+303000608+308601568+314131520
1233.58+319843648+325688512+331540416+337428032+343415584+349422496+355361664
1229.08+361334112+367457216+373542560+379198272+384240960+388870080+393470752
1224.58+398361216+403646208+409190624+414710016+419928672+424695680+429049952
1220.08+433169120+437161248+440935296+444392224+447653632+450939872+454254464
1215.58+457329984+459862016+461760096+463224512+464591648+466017216+467350336
1211.08+468339808+468853600+468929856+468761088+468593728+468414880+467827072
1206.58+466444160+464334176+461864160+459256288+456499168+453567904+450490784
1202.08+447218880+443568544+439414976+434932928+430491584+426215328+421828384
1197.58+417053472+411953536+406721824+401406176+396005280+390577184+385146336
1193.08+379713408+374343328+369012192+363525504+357862848+352383232+347394592
1188.58+342750656+338128000+333443584+328763840+324053216+319264608+314542880
1184.08+310183456+306370592+302984128+299708736+296364736+293063904+289948832
1179.58+286919904+283802336+280684992+277891552+275587552+273560352+271507264
1175.08+269459488+267708960+266344048+265100704+263732784+262248992+260768096
1170.58+259419792+258366624+257635392+257003264+256282352+255497392+254633392
1166.08+253617808+252706576+252362864+252601520+252960592+253151904+253193632
1161.58+253020176+252584976+252192192+252181760+252458624+252753648+253040448
1157.08+253360176+253579680+253645040+253813376+254421072+255553968+256984528
1152.58+258356032+259531296+260796016+262575328+264934720+267503248+269873408
1148.08+272003136+274254688+276980032+280053696+283043808+285910976+289125888
1143.58+292947840+297076416+301185536+305312416+309596608+314100352+318967744
1139.08+324308032+329912224+335442336+340893760+346582720+352752576+359341408
1134.58+366081344+372783232+379597728+386886464+394777344+403041376+411463008
1130.08+420061280+428912672+437980288+447151968+456372640+465795744+475748832
1125.58+486292320+496962592+507339296+517684800+528553760+539993152+551596736
1121.08+563166208+574867392+586866176+599087424+611224960+622941824+634248128
1116.58+645580864+657321920+669404288+681535488+693492096+705073280+716150656
1112.08+726859072+737482944+748210752+759140928+770195136+780886080+790688576
1107.58+799778112+808858816+818228416+827598016+836723648+845587072+854121664
1103.08+862292032+870178048+877667392+884507712+890841152+897098176+903331904
1098.58+909338048+915276864+921468608+927760128+933767104+939441408+944917760
1094.08+950173952+955153664+959869504+964270976+968474624+972933312+977911552
1089.58+983034496+987723584+991785536+995331904+998523840+1001524224+1004412480
1085.08+1007162432+1009782976+1012129280+1013693888+1014201152+1014240704
1081.23+1014557888+1015015744+1015021184+1014455616+1013347264+1011286912
1077.37+1008004736+1003960512+999752192+995534208+991252352+986747648+981524800
1072.87+975044224+967242176+958467968+949251456+940198528+931424128+922085440
1068.37+911236352+899039808+886336128+873355840+859761920+845555968+831070528
1063.87+816340096+801139136+785475840+769662720+754058944+738833408+723812288
1059.37+708636352+693222912+677916416+663102208+648855424+634980352+621220480
1054.87+607495872+593987072+580845312+567870528+554764096+541616064+528839552
1050.37+516711968+505186848+494000672+482868128+471746304+460911584+450568576
1045.87+440610784+431002176+421970208+413471584+404934400+396000800+387154432
1041.37+379219584+372448256+366329344+360085024+353305888+346259168+339515424
1036.87+333230144+327084384+320967680+315272160+310288640+305706400+300985472
1032.37+295983488+291052736+286636096+282866848+279520608+276323168+273220512
1027.87+270263392+267351072+264315168+261197232+258291968+255955792+254384528
1023.37+253424416+252573968+251342256+249672608+247918048+246467040+245552176
1018.87+245261616+245487776+245921072+246270688+246488416+246738848+247246848
1014.37+248186128+249561472+251206144+253013344+255072160+257419296+259891520
1009.87+262526144+265891184+270515872+276067264+281647840+286955072+292657344
1005.37+299481824+307419872+316073600+325298432+335168320+345602688+356379680
1000.87+367375584+378604864+390179968+402323104+415217504+428726240+442407584
996.37+455876192+469117568+482404064+495885824+509298560+522238112+534651648
991.87+546699264+558075072+567935808+575616000+580964992+583951744+584482944
987.38+582661696+578713792+572667776+564572608+554863104+544097664+532501088
982.88+520037952+506680352+492515104+477906720+463478016+449542432+435755776
978.38+421758816+407863296+394680192+382387584+370690912+359196512+347661216
973.88+336201376+325288992+315245888+305882816+296888704+288264576+280156032
969.38+272573824+265488240+258907904+252801920+247178464+242094272+237426016
964.88+232953024+228786032+225235808+222129072+218851200+215263776+212018880
960.38+209726320+208188384+206694960+204854864+202986320+201677904+201046640
955.88+200608368+199880512+198834896+197675808+196546800+195610896+195077456
951.38+194963184+195015392+194986320+194842992+194689776+194609648+194582272
946.88+194515696+194361664+194199584+194167152+194363216+194768208+195180752
942.38+195304208+195032608+194639696+194562112+194955984+195490624+195663104
937.88+195399920+195189632+195401856+195746384+195805520+195781376+196146976
933.38+196866896+197600912+198349024+199187456+199691616+199346496+198413904
928.88+197838800+198314128+199661792+201083568+201935792+202306800+202723920
924.38+203340656+203809104+203955584+204070352+204409296+204886480+205361904
919.88+205840016+206328720+206790720+207230128+207698560+208297568+209157888
915.38+210176240+210892624+210962112+210662384+210630704+211188976+212172624
910.88+213260592+214224080+214955600+215441824+215719872+215872432+216067440
906.38+216507040+217230784+218064464+218767344+219147792+219131648+218868032
901.88+218660896+218646768+218742784+218992992+219633088+220612848+221444816
897.38+221836032+222127504+222775536+223648064+224189280+224136944+223775312
892.88+223524400+223510368+223582720+223582288+223517104+223496528+223591456
888.38+223729408+223703952+223306832+222527456+221610800+220858320+220448240
883.88+220405008+220531056+220409728+219807632+219073040+218770752+218942064
879.38+219199312+219421456+219733264+219874704+219355824+218297616+217470848
874.88+217354656+217614848+217532880+216682192+215280304+214042304+213474016
870.38+213323328+213054128+212688800+212642400+212896768+213001904+212837296
865.88+212777552+213088832+213517280+213514848+212814112+211801056+211185152
861.38+211139664+211106816+210687120+210228096+210238624+210779616+211747584
856.88+213119008+214524304+215100000+214211696+212051472+209493472+207727232
852.38+207721552+209378720+211311808+212104496+211745152+211263632+211174208
847.88+211101728+210840608+210721072+210695360+210053344+208609600+207318960
843.38+207106240+207851680+209003376+210446240+212253264+214352928+216803456
838.88+219389488+220791328+219483248+215961760+212826784+211780416+211742320
834.38+210918896+209570608+209230048+209886832+209730416+207689904+204664240
829.88+201975152+199995920+198602688+197731312+197021408+195979696+194865424
825.38+194460960+194737744+194681872+193606176+191754512+189597856+187436464
820.88+185746960+185028032+185110624+185219056+184773024+183756000+182446704
816.38+181193968+180268192+179570720+178578256+176868800+174706672+172996352
811.88+172528688+173133504+173765072+173604816+172743728+171550064+170082672
807.38+168603200+167733248+167485952+167171824+166754416+166962624+167750928
802.89+168103440+167634464+166868496+166147168+165786336
##END=
