##TITLE=octarelline 6 front
##JCAMP-DX=4.24
##DATA TYPE=INFRARED SPECTRUM
##DATE=31/1/2005
##TIME=17:16:40
##SAMPLING PROCEDURE=film
##ORIGIN=Vincent
##DATA PROCESSING=no operation
##XUNITS=1/CM
##YUNITS=ABSORBANCE
##RESOLUTION=2
##FIRSTX=4000.283
##LASTX=800.31372
##DELTAX=-0.64282227
##MAXY=0.23554896
##MINY=-0.0050650188
##XFACTOR=1
##YFACTOR=2.1937206e-010
##NPOINTS=4979
##FIRSTY=0.0093219075
##XYDATA=(X++(Y..Y))
4000.28+42493595+42588244+42029132+41176432+40225948+39194440+38396732+38376280
3995.14+39130648+39849184+39850628+39422172+39291456+39570960+39770928+39617188
3990.00+39342004+39298432+39623568+40116248+40302540+39892288+39225252+38947356
3984.86+39282420+39871576+40210780+40051708+39583484+39308660+39476100+39702420
3979.71+39523408+39062412+38736520+38620164+38600316+38776712+39203344+39564696
3974.57+39539904+39239812+38992848+38928700+38948076+38937364+38911976+38995860
3969.43+39260516+39632716+40016784+40388044+40646512+40591228+40237632+39969708
3964.28+40127084+40492460+40438988+39714100+38895852+38798980+39464304+40132268
3959.14+40236428+39912156+39504504+39167476+39053624+39285676+39617788+39648248
3954.00+39407484+39295184+39474536+39645596+39347420+38369424+37052472+36150956
3948.86+36080416+36451776+36692300+36815516+37182084+37779756+38152880+37834720
3943.71+36724752+35324684+34608272+35206128+36691576+38022964+38583828+38504652
3938.57+38246832+38239132+38697056+39416752+39906736+39914204+39557360+38856136
3933.43+37616192+36062508+35065476+35254176+36251908+37242684+38001912+38903188
3928.29+40096260+41082216+41144748+40055680+38312880+36694460+35669716+35391120
3923.14+35962768+37165252+38095132+37874652+36744344+35798272+35589336+35573724
3918.00+34985724+33849864+33078066+33635132+35507160+37671032+39229104+40136960
3912.86+40669516+40900068+40932352+40907780+40667952+40112396+39671480+39631516
3907.72+39486572+38615952+36793996+33652056+29081930+24564380+22217042+22022302
3902.57+22112154+21915152+22497132+23797268+24395332+24339782+25610768+29149468
3897.43+33477428+36744344+38507304+39216468+39327320+39222124+38897412+37414640
3892.29+33776764+28996790+26231978+27665712+32039840+36439760+39216220+39711452
3887.15+36844728+30490886+23694444+20950498+23666264+29155454+34099312+36944868
3882.00+37271908+35107628+31676138+29526236+30588552+34242292+38181152+40900912
3876.86+42407760+42750528+41247276+37803208+34128960+32662350+34120320+36284592
3871.72+35457308+29669732+21017282+14601025+14373275+19990962+27866516+34078304
3866.58+36054572+33416102+28560740+25529842+26685932+30427496+33235858+33766800
3861.43+33804012+35293328+37941644+40254488+41296436+40893320+39646920+38492868
3856.29+36065028+27679476+10649920-9490166-22201408-23088714-16505794-6753659
3851.15+5507175+18743590+29448504+35981396+39581552+41797728+43281376+44360268
3846.01+44817680+43706324+40678912+37004984+34562040+34034844+34322740+33896436
3840.86+32695464+31557558+29350058+23278902+13996525+7706713+9479914+16492021
3835.72+22426000+25561998+28502796+32386816+35134656+34954736+32965162+32012854
3830.58+33825256+37573136+41024152+42623928+42201504+40407068+38401060+37560748
3825.44+38376044+39874588+40662408+39640540+35576964+27957588+19223832+14155773
3820.29+15411196+21207274+28064822+33059108+33218460+26670264+16294037+9633583
3815.15+12090814+21432828+31388630+38093092+41394872+42616572+42956004+43197312
3810.01+43551800+43307304+40789848+34611152+26135242+20135554+20770668+26834246
3804.86+33442266+37307012+37494244+32834384+22835634+11466310+6119977+10369483
3799.72+20361702+29884990+35665148+37453480+36454536+34805092+34613432+36296736
3794.58+38622816+40534496+42015392+43277756+44153688+44456696+44298000+43936628
3789.44+43598488+43369420+43121216+42718216+42251164+41800856+41231008+40595560
3784.29+40341440+40672768+41206552+41561048+41541156+40569184+38089724+34930236
3779.15+33079868+33601288+35760788+38365456+40746844+42422828+43043916+42853264
3774.01+42475156+42275640+42189692+41643468+39572040+35485540+30853652+28503996
3768.87+29913262+33582560+36456220+36616324+34664592+32879976+33029956+34961820
3763.72+37302440+39028952+39945388+39944180+38492744+35398808+32006982+30579326
3758.58+31711872+33445268+33956820+33832580+34616680+36439876+37755216+35845376
3753.44+27893080+14602332+2666478-1290973+257139-434428-4392993-4715571+2824109
3747.65+14281399+23035708+24088454+14396928-3731426-19275604-20092266-6502924
3742.51+10384429+22308930+28693988+31990190+33788644+34473420+33458470+29774900
3737.37+23679040+17104068+12133317+10049945+11436519+15206066+18073400+17516292
3732.23+15195484+15449966+20113978+26770134+32245162+35448300+36608156+35888396
3727.08+33752640+31569184+30785096+31652880+33095946+33657576+32646038+30844660
3721.94+30005386+31129096+33384424+35184024+35898004+36015280+36225220+36922028
3716.80+38035232+38858180+38637256+37394552+35160968+30768198+23439500+15708525
3711.66+12125006+13905141+17667134+20435978+22751842+26120418+30225476+33830540
3706.51+36397572+37895940+38438964+38470844+38180428+36840640+33863428+30303598
3701.37+28294870+28994156+31671340+34685968+36889928+38147468+38868656+39300716
3696.23+39392196+39059400+38360400+37599588+37027704+35946192+32907092+28010006
3691.09+23793210+21604248+18547050+11537997+3498258+1570145+8380276+19076090
3685.94+27783822+32717054+34994488+35963132+36481224+37006308+37445664+37389144
3680.80+36584352+35120364+33539596+32617486+32017652+29213174+21327262+9026329
3675.66-2095519-5511430+477251+11821331+22399148+27172176+24028016+15415477
3670.52+7571080+5576399+9258799+15421663+22008936+28252256+33191102+36204796
3665.37+37783484+38627628+38970944+39111872+39407728+39706276+39736376+39654268
3660.23+39575536+39387980+39145332+38319372+35170332+29010320+22744560+20709614
3655.09+23911086+29551390+34476548+36789068+35410456+30348890+22921822+14773162
3649.94+7441853+2887566+2572425+5786451+10626786+16308908+22875028+29438564
3644.80+34518332+37629056+39302888+40026784+40069648+39865916+39767436+39654028
3639.66+39243544+38640140+38324552+38708720+39756356+40921144+41372584+40479936
3634.52+38398776+36295532+35607596+36646016+37875612+36647944+30870910+20791060
3629.37+9922691+3589990+5030722+12788079+22553586+30800436+36286756+39385220
3624.23+40993068+41791220+42033960+41684204+40380216+37477044+32968760+28411460
3619.09+25917522+26162266+28333292+31594606+35153752+37631104+38099828+37183768
3613.95+35795748+33901724+31957454+31793648+33887192+35483616+33877352+30214694
3608.80+27995166+28753250+31216120+33938328+36666452+39452504+41943912+43658436
3603.66+44372100+44211248+43543964+42766204+42196556+42072764+42413672+43038368
3598.52+43864848+44794024+45216160+44412404+42713992+41448256+41465004+42403180
3593.38+43521284+44469004+45256604+45976036+46367376+45505924+42667576+38653256
3588.23+35309072+33645332+33514750+34937084+38097544+42090848+45268432+46947408
3583.09+47717856+48207364+48460564+48421868+48308444+48463580+49055716+49847808
3577.95+50327788+50242580+49831108+49465092+49387060+49803644+50737304+51740328
3572.81+52206224+52010576+51568096+51251648+50885980+49766608+47324196+43964860
3567.66+41005724+39559520+39810776+41418612+43931320+46658644+48901380+50532724
3562.52+51798224+52581232+52569724+52096588+52043408+52807484+53870604+54539928
3557.38+54713880+54796124+55077708+55404356+55418552+54950200+54092760+53111816
3552.24+52478604+52732952+53957428+55526072+56645176+56999528+56696176+55863108
3547.09+54676392+53620836+53299460+53907344+55149416+56669460+58262736+59644828
3541.95+60452364+60688636+60807516+61110528+61407004+61479068+61456792+61514732
3536.81+61606880+61728488+62032616+62566348+63230212+63974736+64705868+65109596
3531.67+64950096+64388420+63759500+63267004+63009100+62983032+63009944+62971456
3526.52+63012384+63189760+63255920+63203400+63530536+64445960+65303372+65423376
3521.38+65059596+65009720+65602072+66513684+67285688+67694816+67804720+67881656
3516.24+68142512+68567696+69066544+69677456+70411568+71053112+71326624+71177136
3511.10+70768032+70343216+70176936+70453144+71094216+71840352+72507696+73012912
3505.95+73201600+72920000+72246872+71499728+71019600+71050792+71658048+72620920
3500.81+73561616+74293856+74892552+75441288+75940016+76464256+77106048+77728288
3495.67+78009600+77838512+77519920+77505080+77924664+78439008+78664416+78696720
3490.52+78922520+79362696+79671016+79794352+80061448+80568488+81075024+81549232
3485.38+82101416+82416192+82028112+81200784+80835936+81423448+82560856+83496928
3480.24+83816488+83691904+83679224+84114296+84713864+84977568+84838016+84628152
3475.10+84653528+85052456+85731176+86245080+86218448+86023600+86449816+87562736
3469.95+88538568+88742800+88367304+87927728+87748856+87996688+88651728+89365504
3464.81+89742184+89784416+89784288+89861968+89899496+89861712+89914192+90213912
3459.67+90730704+91276688+91644456+91706248+91406296+90777528+90072128+89765888
3454.53+90199456+91193760+92181032+92720864+92771176+92569376+92474288+92750656
3449.38+93210840+93276152+92707752+92053944+92009816+92596944+93353096+94013624
3444.24+94571648+94980272+95199400+95306376+95325328+95214632+95150248+95447904
3439.10+96133424+96857464+97236440+97081520+96495544+95951704+96004112+96695144
3433.96+97464512+97774160+97581640+97224536+97095640+97377736+97900872+98320216
3428.81+98503024+98556352+98527328+98333744+97986800+97624408+97416280+97536888
3423.67+98023248+98596160+98859984+98709024+98309312+97817312+97419384+97395584
3418.53+97805160+98282640+98438288+98284256+98044320+97806648+97569000+97483216
3413.39+97832800+98706056+99730704+100260784+99994552+99317504+98883552
3408.89+98922128+99102128+98983288+98481448+97942160+97776640+98029688+98371816
3403.74+98556960+98632016+98638088+98444232+98081144+97923432+98192632+98456264
3398.60+98001672+96780752+95630696+95360736+95871952+96425408+96556744+96386016
3393.46+96284176+96556744+97202848+97748000+97675112+97145960+96785096+96705544
3388.32+96449816+95918392+95567776+95597624+95680728+95557504+95345136+95311840
3383.17+95682464+96402360+96920168+96657224+95772000+95008744+94852136+95282616
3378.03+96060712+96767752+96949408+96659824+96460104+96620168+96824128+96777280
3372.89+96562560+96379072+96409056+96776544+97248584+97315760+96848784+96257176
3367.75+95817456+95384136+94833808+94278200+93818872+93534704+93554488+93803904
3362.60+93970320+93988136+94152960+94523376+94712256+94424000+93782256+93071584
3357.46+92541432+92427560+92753128+93198592+93491768+93750208+94145424+94478448
3352.32+94466936+94278576+94390448+94927784+95424008+95334736+94618072+93720016
3347.18+93106712+92899424+92858608+92600176+91921696+91068600+90583584+90732808
3342.03+91202048+91512960+91608736+91808584+92302184+92939736+93435232+93586896
3336.89+93352112+92881744+92386264+91943560+91589696+91541872+91945912+92423968
3331.75+92399120+91943440+91730480+92013160+92286232+92178176+92044808+92310232
3326.61+92738536+92739648+92124048+91286320+90805320+90995952+91687344+92370064
3321.46+92611288+92347192+91874096+91639256+91902648+92439304+92659152+92199704
3316.32+91333520+90728616+90880808+91737512+92743232+93360384+93598648+93812688
3311.18+94014488+93839904+93241776+92695136+92605112+92982160+93703176+94604328
3306.03+95377464+95768904+95730392+95170048+94002744+92676336+91983496+92060504
3300.89+92259784+92195128+92157664+92349296+92525232+92544896+92555656+92583352
3295.75+92511016+92364128+92167688+91818472+91478848+91628632+92339272+92996752
3290.61+93101632+92879760+92828440+93081216+93351616+93246464+92625760+91829472
3285.46+91345136+91158552+90843992+90351248+90125976+90340624+90568752+90414104
3280.32+90023600+89822816+90009528+90317040+90225144+89544512+88744544+88362496
3275.18+88253544+87921560+87362088+86990040+86976248+87225568+87666096+87987304
3270.04+87580248+86380792+85272464+85005032+85172936+84861160+83898712+82863888
3264.89+82181112+81758648+81373648+81009248+80761688+80570200+80193056+79558368
3259.75+78988840+78762392+78591608+77969096+76972832+76238600+76112904+76285448
3254.61+76272320+75888392+75254344+74652128+74361856+74388200+74423720+74250368
3249.47+74042848+74091592+74342368+74402536+73964328+73119312+72258376+71727664
3244.32+71573256+71589040+71565664+71430856+71184856+70804224+70274624+69665608
3239.18+69123120+68749856+68509680+68250960+67829632+67269088+66809276+66713588
3234.04+66928636+67057292+66793892+66290384+65902400+65729420+65631344+65524496
3228.90+65430944+65393872+65538284+65962904+66425952+66475744+66052460+65593288
3223.75+65409608+65344348+65147036+64777200+64272248+63687128+63208520+63013604
3218.61+63040524+63115692+63198288+63315612+63387616+63312204+63083656+62766456
3213.47+62466852+62346652+62454300+62573044+62425800+62060008+61821624+61882500
3208.33+61985624+61811032+61439872+61189024+61107608+61000028+60881988+60967900
3203.18+61194620+61210932+60883568+60416956+60008112+59762428+59794172+60007628
3198.04+59968100+59398344+58609240+58132468+58134048+58385352+58574348+58494016
3192.90+58146804+57730528+57431924+57336452+57549880+58106824+58691768+58803228
3187.76+58302480+57534088+56947792+56806192+57084412+57416012+57358196+56902372
3182.61+56492428+56436212+56598180+56764664+56956416+57250336+57562276+57737336
3177.47+57751796+57714008+57711944+57711096+57682300+57723484+57887868+57986768
3172.33+57809256+57458408+57220208+57201140+57327096+57528140+57719840+57772444
3167.19+57695780+57657756+57730040+57840604+57993212+58295544+58796300+59484192
3162.04+60308208+61004772+61141804+60602132+59822388+59328432+59196268+59137300
3156.90+58981440+58841280+58868504+59014876+59089392+59006608+58853316+58748648
3151.76+58724588+58774664+58854524+58840672+58608144+58202944+57815332+57555956
3146.61+57381880+57233812+57125592+57082844+57130332+57328064+57707932+58120684
3141.47+58261648+57947400+57327336+56751060+56420672+56246456+56011316+55600948
3136.33+55057324+54511064+54120892+53999268+54101976+54219492+54174136+54027032
3131.19+54003508+54239744+54653708+54981256+54894264+54252600+53376432+52825664
3126.04+52730040+52613472+52102036+51485012+51262064+51494824+51911848+52382028
3120.90+52927948+53477780+53879580+54038676+53939484+53634416+53243696+52857656
3115.76+52476904+52099740+51748564+51410532+51088420+50869148+50788760+50738272
3110.62+50627264+50504028+50424260+50390852+50428856+50489504+50334084+49819252
3105.47+49229548+49039996+49401696+50031632+50474976+50428252+50020736+49763588
3100.33+49973180+50345580+50417600+50227452+50137888+50228780+50291116+50245240
3095.19+50192352+50187028+50239432+50366524+50452824+50244756+49697644+49171480
3090.05+49100112+49538896+50158952+50607164+50773020+50732944+50601720+50488052
3084.90+50489264+50606320+50700864+50615520+50338316+50000284+49746888+49632424
3079.76+49592860+49489048+49242372+48986412+49030924+49550148+50238948+50466872
3074.62+49958772+49188056+48859652+49068904+49262576+48977700+48343992+47883472
3069.48+48008840+48689972+49468480+49911216+50045424+50084272+49864268+49066968
3064.33+47948028+47202496+47071868+47187640+47274772+47364080+47411576+47349220
3059.19+47399616+47727048+47977648+47737444+47193196+46815104+46717236+46753600
3054.05+46870440+46956832+46779456+46402168+46261440+46570084+46982084+47014832
3048.91+46533600+45795124+45232580+45157488+45486364+45849588+46035940+46170368
3043.76+46427656+46763144+46984864+46933996+46619256+46232572+45996204+45995000
3038.62+46151768+46272672+46089684+45483588+44768068+44533688+45044732+45942464
3033.48+46591712+46634116+46214696+45802132+45750444+46008164+46299012+46467156
3028.34+46511128+46477908+46482020+46646072+46898112+47042988+47056280+47043836
3023.19+47004080+46909224+46873220+46964928+47052780+47049876+47036584+47057368
3018.05+47140624+47452308+48017300+48468180+48518492+48416660+48458508+48437588
3012.91+48074492+47609920+47497752+47791236+48222112+48604832+48882024+48929920
3007.77+48572060+47831976+47120084+47006136+47638328+48516552+49034308+49102896
3002.62+49042292+49082092+49244792+49548692+50011180+50470012+50648448+50515892
2997.48+50454156+50852924+51578996+52103980+52148684+51901672+51638220+51515048
2992.34+51695152+52205864+52721316+52913284+52933644+53181508+53785244+54617556
2987.20+55522552+56277168+56682208+56887556+57234176+57707932+57997464+58069768
2982.05+58224820+58599632+59085992+59679976+60473532+61328872+61937532+62246796
2976.91+62550020+63065496+63689924+64276388+64948636+65858484+66793768+67368944
2971.77+67586152+67861744+68466800+69253248+69956392+70512568+71008224+71491648
2966.62+71902632+72188376+72467800+72946192+73602272+74122840+74262264+74113280
2961.48+73970576+74081680+74558024+75310112+76071704+76588256+76746000+76541040
2956.34+76082000+75578704+75122104+74608616+74030728+73584144+73310216+72983784
2951.20+72552384+72281760+72324600+72523984+72712848+72806504+72659120+72226672
2946.05+71800952+71718240+71951216+72218120+72369504+72469016+72660464+73036912
2940.91+73541528+73986624+74312368+74703216+75322992+76070968+76713488+77121760
2935.77+77318432+77424208+77573792+77769296+77839488+77685344+77477464+77448384
2930.63+77556120+77575272+77520048+77683624+78183784+78732816+79033424+79142480
2925.48+79239984+79292192+79150088+78745832+78077240+77247760+76550608+76199984
2920.34+76002792+75643432+75176400+74850760+74609360+74182376+73542272+72919264
2915.20+72482608+72207832+71930776+71466816+70821224+70233664+69854208+69554864
2910.06+69200952+68843920+68487440+67966528+67246264+66588372+66257432+66213264
2904.91+66172024+65869828+65219964+64329292+63464132+62989968+63151628+63700404
2899.77+63956568+63584276+63105212+63207060+63773032+64115256+63944512+63573924
2894.63+63331816+63235692+63122384+62802024+62212700+61534448+60996128+60633276
2889.49+60458080+60625980+61135596+61634636+61816632+61760508+61670908+61590080
2884.34+61481748+61316452+61056004+60789748+60757264+61002824+61251580+61345660
2879.20+61477120+61781444+62067308+62122964+61976000+61738108+61473100+61276656
2874.06+61246228+61359660+61519112+61639256+61624772+61418204+61106996+60820172
2868.92+60538496+60159184+59663312+59099972+58544816+58135992+58007184+58109984
2863.77+58276712+58414768+58459736+58274892+57866240+57503472+57377748+57334876
2858.63+57203328+57073608+56995396+56770732+56360576+56136956+56375388+56817484
2853.49+57051384+57017260+56881608+56741832+56667880+56767576+57000376+57144908
2848.35+57040696+56659504+56018840+55272332+54791268+54763008+54806312+54337012
2843.20+53323456+52361068+51968420+52062428+52196296+52113424+51926380+51816880
2838.06+51731488+51477020+51040956+50625204+50342316+50097704+49865476+49866804
2832.92+50269812+50808372+50952088+50474132+49696552+49131080+48991848+49115836
2827.78+49216360+49094428+48718876+48265276+48040392+48222356+48672068+49084268
2822.63+49279392+49298260+49273824+49311448+49431944+49561648+49613428+49592252
2817.49+49563336+49521108+49421296+49332256+49407748+49634480+49767584+49621772
2812.35+49318948+49128904+49170028+49350764+49518932+49537684+49350280+49072292
2807.20+48923268+48974072+49086688+49133744+49118984+49056568+48938148+48857352
2802.06+48936212+49140756+49332372+49462920+49575432+49707808+49906860+50139464
2796.92+50125300+49575676+48711980+48171208+48253912+48637240+48958468+49271040
2791.78+49732488+50210628+50454404+50436728+50306360+50134260+49911216+49749912
2786.63+49886052+50359136+50836696+50960680+50787060+50644812+50662732+50754496
2781.49+50947116+51317524+51673956+51741180+51590992+51496396+51477992+51430876
2776.35+51523532+51971692+52560756+52878020+52892316+52878864+52943832+53004308
2771.21+53066248+53155456+53183812+53166480+53317520+53693948+54044128+54247380
2766.06+54546968+55095180+55607016+55742220+55604588+55594276+55914088+56428568
2760.92+56927636+57372652+57845588+58348408+58748532+58932572+58951656+58983264
2755.78+59216932+59725092+60380948+60937356+61280552+61505480+61714492+61946656
2750.64+62332640+63007632+63799240+64338196+64591268+64937780+65653304+66583852
2745.49+67394336+67910224+68223360+68585904+69170648+69932072+70818168+71955864
2740.35+73331272+74540248+75239280+75653120+76236024+77061392+77936456+78833128
2735.21+79846080+80927144+81979648+83038376+84189144+85475256+86926304+88515128
2730.07+90094616+91522848+92814840+94078592+95405808+96871840+98522488
2725.57+100331048+102249616+104239424+106197400+107981832+109592008+111194408
2721.07+112935120+114856816+116977032+119287128+121709712+124221704+126919056
2716.57+129786400+132559736+135050928+137477728+140203088+143248432+146323488
2712.07+149272048+152201008+155205424+158236768+161270304+164418016+167837600
2707.57+171594480+175579968+179518224+183179792+186612128+190014208+193461680
2703.07+196954688+200635744+204648288+208836928+212911344+216820240+220723264
2698.57+224722288+228851280+233152560+237585104+242025024+246452080+250918288
2694.07+255342096+259609088+263826272+268155648+272476000+276543328+280441888
2689.57+284567904+289164832+294069792+298925984+303553568+308067168+312660768
2685.07+317352864+322034016+326686720+331395872+336153184+340805088+345212576
2680.57+349416416+353658688+358194944+362990112+367703520+372096192+376322624
2676.07+380671904+385200192+389772000+394285632+398749632+403275200+408011328
2671.57+412916160+417662368+421983616+426043328+430250176+434804928+439605504
2667.07+444481824+449313184+453966528+458310080+462388512+466487680+470922496
2662.57+475702592+480525248+485103232+489399712+493541408+497675712+501896672
2658.07+506185600+510497728+514970240+519812192+524877888+529668416+533922816
2653.57+537901184+541995200+546351616+550916800+555544576+560070784+564462976
2649.07+568819200+573145920+577407360+581773056+586426624+591154624+595573504
2644.57+599710592+603898496+608212672+612472128+616671040+621001024+625555072
2640.07+630254144+634985536+639664640+644264320+648789952+653184640+657383616
2635.57+661503424+665748224+670088896+674307776+678349888+682366848+686463360
2631.07+690667008+695055104+699668544+704371776+708968448+713363648+717534912
2626.57+721484352+725328704+729297984+733544384+737968192+742314496+746440896
2622.07+750426880+754409024+758437120+762564352+766878464+771292416+775521920
2617.57+779447488+783282624+787232448+791210304+795032640+798734272+802542784
2613.07+806616128+810832384+814876672+818604800+822192256+825811072+829410688
2608.57+833005056+836788608+840739072+844550464+848137536+851697344+855208064
2604.07+858503744+861818880+865531328+869431744+872990336+876204608+879497472
2599.57+882960000+886324672+889439168+892337664+895112640+897968512+901060544
2595.07+904211008+907136192+909898752+912751616+915713024+918621504+921413376
2590.57+924082624+926603200+929040320+931548736+934198848+936975360+939806848
2586.07+942482816+944767424+946739328+948772224+951113216+953706112+956347264
2581.57+958770752+960775296+962512576+964411776+966596352+968706752+970511296
2577.07+972279552+974290688+976391488+978317184+980073536+981770688+983410496
2572.57+985065408+986942912+989043904+991048384+992711040+994095424+995307648
2568.07+996340160+997318784+998577408+1000278272+1002160000+1003778432
2564.22+1004877696+1005590976+1006374464+1007583488+1009040000+1010231680
2560.36+1011026944+1011822144+1012916928+1014137088+1015169408+1015920512
2556.50+1016508032+1017204608+1018340352+1019964928+1021653952+1022885568
2552.65+1023558080+1023999872+1024571904+1025374336+1026293632+1027247616
2548.79+1028282816+1029401088+1030454464+1031340544+1032117312+1032833152
2544.93+1033508160+1034309888+1035387008+1036546368+1037515328+1038384000
2541.08+1039317248+1040077056+1040390976+1040514880+1040887360+1041555968
2537.22+1042383360+1043392320+1044506752+1045397568+1045958208+1046520448
2533.36+1047367936+1048361600+1049198848+1049779968+1050250688+1050808384
2529.51+1051474304+1052070976+1052542272+1053170560+1054248064+1055648704
2525.65+1056944000+1057833152+1058337600+1058687808+1059111872+1059713024
2521.79+1060474688+1061321664+1062070144+1062483904+1062616064+1062891008
2517.93+1063569728+1064399424+1065061504+1065635008+1066309568+1066990016
2514.08+1067525440+1068011264+1068595840+1069218880+1069749312+1070214976
2510.22+1070769664+1071474112+1072166272+1072615232+1072809408+1072912064
2506.36+1072930688+1072764928+1072611392+1072818944+1073288320+1073555328
2502.51+1073527040+1073546176+1073707264+1073741824+1073607424+1073562560
2498.65+1073648320+1073603776+1073344640+1073081856+1072930432+1072733696
2494.79+1072302272+1071648064+1070943808+1070340800+1069849216+1069389376
2490.94+1068901248+1068343104+1067681216+1066946432+1066209728+1065432384
2487.08+1064503488+1063484032+1062584320+1061807040+1060849408+1059490752
2483.22+1057902080+1056441728+1055259200+1054175296+1052900288+1051329728
2479.37+1049629440+1048038784+1046651648+1045406016+1044198272+1042921408
2475.51+1041470720+1039780480+1037875328+1035873408+1033945024+1032185984
2471.65+1030504768+1028748416+1026930240+1025167040+1023405504+1021471808
2467.79+1019373184+1017290944+1015263232+1013164992+1011003072+1008939136
2463.94+1007011264+1005083968+1003073792+1000976704+998744704+996375360
2460.08+994048320+991933760+989958144+987954688+985939968+984014592+982122112
2455.58+980116864+977974848+975776896+973591872+971487936+969532352+967667520
2451.08+965718656+963606464+961463232+959493696+957778944+956233280+954706944
2446.58+953144768+951600704+950054272+948355776+946470400+944619264+942992960
2442.08+941534080+940173696+938973888+937835712+936429376+934696640+933079808
2437.58+931946624+931109376+930150528+928932032+927581952+926268096+925158976
2433.08+924347776+923706240+922990656+922122944+921215936+920358016+919528384
2428.58+918652416+917661568+916577472+915585024+914909760+914588480+914411776
2424.08+914088704+913447104+912549440+911629504+910858176+910215680+909633216
2419.58+909102720+908562688+907880448+907072960+906312384+905640960+904920384
2415.08+904135744+903431680+902816896+902150272+901462720+900965632+900696192
2410.58+900414208+899895808+899134976+898250176+897329024+896376128+895361984
2406.08+894330368+893414592+892691072+892102976+891558976+890942016+890026944
2401.58+888644992+887015104+885619968+884670528+883926784+883067712+881974592
2397.08+880667520+879231744+877839424+876608576+875469056+874310976+873163840
2392.58+872051328+870826112+869351168+867736512+866211136+864835968+863463744
2388.08+861941824+860274880+858576704+856865472+854965440+852716608+850267712
2383.58+847979520+846043520+844385728+842918464+841604544+840249792+838542528
2379.09+836397184+834019392+831588352+829092224+826519488+823982720+821588480
2374.59+819328064+817102592+814770688+812212544+809464768+806721344+804115520
2370.09+801563008+798903488+796150976+793484288+790998720+788547584+785929472
2365.59+783181824+780541312+778057472+775466176+772577920+769601152+766914240
2361.09+764675968+762765632+760953664+758987456+756716352+754267648+751955008
2356.59+749938624+748127232+746404992+744792320+743340608+742014016+740683328
2352.09+739186368+737444736+735526272+733518912+731372352+728992576+726423296
2347.59+723775360+721021824+718036864+714844288+711684736+708797696+706172864
2343.09+703576256+700858816+698176576+695743296+693435840+690904768+688093312
2338.59+685321920+682825856+680515200+678228224+675900224+673459456+670879616
2334.09+668356032+666121792+664099712+661991936+659702016+657405440+655246464
2329.59+653198272+651193792+649189568+647112512+644910848+642658240+640460928
2325.09+638293376+636065920+633843136+631802368+629935360+628017728+625946944
2320.59+623865792+621821952+619588608+617043264+614484544+612289344+610407936
2316.09+608474048+606321728+604141632+602155392+600336704+598480064+596435712
2311.59+594217024+591892992+589472320+586957184+584443840+582068352+579866240
2307.09+577771008+575707008+573620032+571484544+569333312+567201088+565039808
2302.59+562797888+560555648+558424384+556358080+554224576+551999168+549712512
2298.09+547309248+544760256+542246528+540017216+538082176+536213472+534230080
2293.59+532126176+529939456+527651744+525257888+522825216+520443936+518172224
2289.09+516042272+514030944+512051744+510055296+508085152+506123168+504002176
2284.59+501641504+499236864+497011712+494908832+492756512+490576480+488488544
2280.09+486454560+484345568+482142752+479919136+477768960+475801824+474000384
2275.59+472108672+469914304+467591584+465484544+463625600+461785920+459882592
2271.09+458023680+456237760+454447872+452634368+450817344+448950784+446980032
2266.59+444935744+442917216+441020480+439256928+437470528+435455296+433223168
2262.09+431026240+429028832+427138880+425235712+423343264+421501184+419684160
2257.59+417910688+416229216+414524832+412567840+410327712+408067296+406069152
2253.09+404404032+402951328+401495392+399803520+397804032+395702144+393773056
2248.59+392073376+390470560+388888896+387321696+385662400+383762528+381660000
2244.09+379595680+377772800+376207648+374762656+373250752+371574272+369823264
2239.59+368147712+366543456+364880192+363109120+361273856+359407968+357600576
2235.09+356026720+354688704+353305856+351691168+350023712+348512000+347045472
2230.59+345455520+343860000+342469440+341231040+339901888+338335744+336581184
2226.09+334808000+333182912+331687168+330115840+328369568+326632832+325116000
2221.59+323784608+322499840+321221248+319928960+318514784+316941504+315374848
2217.09+314009024+312836096+311681504+310399520+308962144+307419072+305836064
2212.59+304257280+302700928+301197152+299813952+298590816+297428096+296137152
2208.09+294657056+293159520+291882848+290889920+290010176+288980640+287650720
2203.59+286101632+284565984+283202656+282005312+280907744+279850048+278734592
2199.09+277503840+276256384+275084800+273863648+272448512+270976480+269705120
2194.60+268655008+267678752+266713696+265705088+264491440+263056976+261683744
2190.10+260595616+259641792+258557184+257332976+256134288+255018320+253920768
2185.60+252818832+251763408+250761856+249750080+248699792+247682544+246750304
2181.10+245834896+244866256+243894720+242941744+241856112+240518944+239067008
2176.60+237739440+236626048+235703648+234947488+234254160+233441984+232451120
2172.10+231391376+230337776+229271616+228204592+227186016+226189152+225171104
2167.60+224209472+223424784+222778560+222073488+221165232+220110864+219093552
2163.10+218231840+217488624+216762688+215968064+215025344+213917840+212805312
2158.60+211928736+211313904+210721216+209936096+208964384+207928176+206951696
2154.10+206158752+205589968+205106464+204502256+203706512+202785840+201833072
2149.60+200928928+200117632+199361232+198583344+197786192+197044240+196380864
2145.10+195733472+195029920+194249168+193406672+192527952+191635216+190775632
2140.60+190024736+189406304+188823904+188140432+187322848+186449296+185623168
2136.10+184932384+184407664+183948544+183394032+182729504+182084112+181504496
2131.60+180895984+180223776+179557744+178878400+178047280+177073072+176211888
2127.10+175692528+175446656+175188656+174711472+174043680+173325264+172621648
2122.60+171916848+171240480+170643968+170070144+169396992+168658256+168058416
2118.10+167708928+167471984+167105392+166501760+165784528+165194800+164823856
2113.60+164462640+163838416+163003872+162301488+161925600+161705984+161359280
2109.10+160776352+160022800+159234368+158554288+158058704+157693088+157319984
2104.60+156813728+156110736+155254416+154414576+153769792+153342480+153020576
2100.10+152719328+152439184+152187648+151916224+151548560+151059200+150541424
2095.60+150157840+149929600+149640432+149085136+148331440+147602560+146991664
2091.10+146455520+145977312+145550016+145094528+144569296+144070736+143690960
2086.60+143409536+143228144+143196416+143203664+142990416+142503424+141969648
2082.10+141492016+140895520+140127216+139485056+139176384+138932336+138333952
2077.60+137367056+136431440+135896000+135790736+135835968+135689376+135225776
2073.10+134640032+134203304+133938264+133664176+133304904+132963784+132710024
2068.60+132488832+132256568+132005536+131650256+131092640+130427440+129892752
2064.10+129565552+129286008+128903736+128416424+127867416+127278416+126739264
2059.60+126399768+126300032+126273360+126084336+125641464+125079912+124628936
2055.10+124401256+124302352+124168936+123917424+123541848+123017040+122328928
2050.60+121580592+120975888+120665720+120605896+120600880+120492032+120293640
2046.10+120107824+119927536+119599472+119008032+118232136+117482592+116926456
2041.60+116599264+116420288+116268504+116093688+115937040+115803040+115567848
2037.10+115139568+114648120+114292680+114038912+113694952+113242976+112866176
2032.60+112655176+112520168+112360040+112119520+111764784+111409352+111304744
2028.10+111465528+111507584+111129496+110508144+109962712+109501976+109015048
2023.60+108619096+108475496+108480728+108419408+108250648+108040656+107764016
2019.10+107331696+106702568+105932976+105235976+104910080+105034136+105284384
2014.60+105244440+104838296+104320784+103945680+103775304+103706168+103554968
2010.11+103189824+102663552+102175056+101881864+101801728+101840616+101825208
2005.61+101586328+101141200+100725712+100529920+100493424+100473312+100469720
2001.11+100509312+100452328+100143248+99672992+99265008+98966048+98655952
1996.61+98313648+98071848+97980720+97866032+97429792+96498752+95291528+94423240
1991.46+94401096+95015800+95496824+95365816+94863656+94471264+94359272+94444656
1986.32+94649880+94871328+94941024+94812032+94608784+94442560+94329552+94276464
1981.18+94229440+93983560+93390824+92639856+92120576+92023664+92214536+92449560
1976.04+92577040+92543408+92347440+92030216+91666576+91314368+90986432+90695872
1970.89+90492176+90376200+90186488+89702552+88888680+87989160+87385760+87374656
1965.75+87937600+88646432+88984456+88869672+88673328+88659512+88687280+88556960
1960.61+88330416+88143000+87979544+87814368+87758608+87872704+87974240+87809432
1955.47+87349864+86807952+86402112+86193808+86124544+86095456+86012144+85864632
1950.32+85765680+85781576+85777504+85582696+85204592+84711520+84141136+83680712
1945.18+83574720+83518968+82694472+80928376+79358400+79270696+80563072+82016544
1940.04+82824032+83176448+83510712+83828792+83872744+83580264+83159584+82847896
1934.90+82717848+82715512+82792280+82919264+83001208+82908320+82657440+82431064
1929.75+82325648+82215192+81977800+81711192+81551808+81465376+81406848+81381768
1924.61+81124328+80182120+78704328+77640304+77719336+78706784+79877896+80416584
1919.47+79315776+76274536+73053816+72385304+74777848+77891768+79613528+80069072
1914.32+80265192+80434520+80394088+80230648+79988584+79513528+78911112+78516352
1909.18+78396288+78407200+78581784+78994376+79456664+79691776+79648528+79469432
1904.04+79317488+79281008+79332360+79405680+79523728+79712648+79851856+79769040
1898.90+79477168+79188528+79099624+79145424+78970056+78360808+77710880+77631960
1893.75+78114672+78616656+78869352+78827120+77997952+75965640+73634120+72808088
1888.61+74174544+76529872+78259280+78819992+78652640+78334536+78133088+78095280
1883.47+78220248+78466872+78659632+78608560+78365352+78188088+78240992+78483320
1878.33+78804032+79096048+79263328+79298816+79289488+79326336+79446832+79582688
1873.18+79556152+79282120+78779224+77649264+75039376+70938384+67154704+65920940
1868.04+67589688+70632776+73551816+75765176+77132680+77715168+77914480+78148552
1862.90+78418992+78508000+78413216+78379824+78578976+78877592+78999888+78928672
1857.76+78933952+79108832+79227344+79218008+79319336+79624328+79905416+79970408
1852.61+79828864+79597056+79486872+79635136+79788200+79500016+78679280+77718240
1847.47+77176848+77091952+75977288+71387424+63368860+56829748+57430104+64625524
1842.33+72437440+76778392+78272048+78891944+79275976+79391552+79282728+78824056
1837.19+78141440+77940984+78529368+79272048+79521152+79289744+78915536+78616528
1832.04+77956336+75653608+71219824+66897392+66105532+69516736+74474088+78030224
1826.90+78664416+76200712+72319568+70216680+71601880+74819504+77342000+78623536
1821.76+79426928+80000024+80126944+79911688+79614264+79289864+78916512+78523104
1816.62+78209192+78217288+78687248+79319832+79662528+79596448+79130192+78056376
1811.47+76413728+75045984+75027712+76433728+78132352+78999408+79060560+79127616
1806.33+79570888+80029880+80195400+80018696+79201544+77465184+75388936+73923536
1801.19+73021480+71925760+70830880+70999544+72971400+75636320+77366296+77551336
1796.05+77010232+76855056+76481800+73347192+66221932+58369196+55325232+58795456
1790.90+65216428+70770840+74633000+77200400+78414696+78596656+78467240+77678104
1785.76+75449000+72868816+72281880+74143424+76532088+77651344+77089856+75375448
1780.62+73840864+73945096+75579440+77226912+78093688+78341776+77664600+76010152
1775.48+74738008+73992136+70322920+60910948+49398188+43765076+47710124+57352968
1770.33+66336256+70524792+69234920+65556572+64502156+68166936+73661424+77267392
1765.19+78492160+78802568+78228464+75108240+69110896+63373736+62343360+66876400
1760.05+73065688+76793840+77243464+75359032+71907528+68751560+68911112+72783000
1754.90+77091824+79295752+79443520+76801080+69563784+59995340+55002728+57949956
1749.76+64173764+67981296+69107592+70280376+72535608+75035448+76970360+77909208
1744.62+77635768+76618432+76128368+77297696+79388984+79234224+74326696+67211464
1739.48+64302480+68394240+75441288+80469304+81788040+78030600+66494408+48000500
1734.33+30949658+26230662+36659840+54454904+69360672+76315864+76887440+76039816
1729.19+77189128+79878512+82021840+82881112+83137312+83300872+83183216+82607856
1724.05+81876216+81493656+81800584+82796832+83948328+84115160+81694464+74772328
1718.91+62177388+46493252+35712488+37138916+47940288+58083744+62822976+66012932
1713.76+71719576+78364728+82846536+84905512+85427944+84823600+84288272+85110480
1708.62+86181856+85114792+81562392+77436352+74706408+74191928+75533592+78049744
1703.48+81736392+85203600+82486312+67051808+42162204+24299764+28749420+51559132
1698.34+75017680+84942584+77442120+59579528+47719068+55174164+77177952+98049528
1693.19+109536896+114265192+117044752+119072456+120280984+121973616+124884432
1688.69+128160712+131767408+136107344+137679456+129820672+111328328+92677200
1684.19+88932496+103733280+126845584+147247520+160599104+167667328+171601280
1679.69+175730560+181339376+187435552+192226768+193406400+188774288+180062352
1675.19+175229008+181752432+196792672+210042368+215734592+216592720+217000592
1670.70+216754928+214092720+211809600+215749616+227224944+240977376+251495248
1666.20+257980688+262600736+266135872+266988448+264548912+262250304+265321312
1661.70+274787776+286116064+294861728+300775392+305676736+310319680+314644640
1657.20+318607680+321321152+320828256+314739072+300223136+276580640+252226176
1652.70+245591616+267430768+305155072+337712864+355506688+360746240+359176640
1648.20+354897024+349463872+343460192+339605856+343198592+355951552+371463840
1643.70+381723776+385388416+386354592+387131008+387447104+387383392+387256000
1639.20+385741632+381704640+375764480+367195520+353153920+335432896+324260512
1634.70+328013888+341411392+352405312+355569120+353204480+348856480+343952192
1630.20+338396768+331165472+321332256+310089248+300436704+294094048+289838304
1625.70+284659616+275578144+261943024+247447712+237867312+234988000+234895008
1621.20+233050336+228481760+222906896+217259744+208937760+193459600+171596256
1616.70+154165424+153118608+165967120+179039200+184339904+183976912+182184256
1612.20+180089232+177750896+175772224+174023072+172014272+170286176+169369856
1607.70+168672912+167811408+167303632+167153520+166624464+165675600+164917744
1603.20+164403136+163885728+163570928+163523760+163296432+162817488+162525888
1598.70+162427008+162136768+161680896+161210784+160486992+159544656+159078112
1594.20+159482368+160375808+161334304+162144720+162463008+162206832+161927760
1589.70+162077872+162593792+163571168+165230720+167084704+168425440+169418320
1585.20+170473920+171279600+171644912+172153040+173026608+173841664+174728624
1580.70+176057248+177286768+178010896+178333552+175768752+165362576+147584752
1576.20+133920976+137127008+154812112+172923696+182816096+186234720+187809440
1571.70+187965248+183875520+175378960+167769424+167347808+174515296+183861040
1567.20+190351680+192511840+191233728+188616208+187235264+188303680+190663504
1562.70+191644704+187409488+173862144+150908144+125785192+108151808+101691544
1558.20+105598016+120192096+142374080+161223328+166806256+160392064+152945728
1553.70+153751936+161890256+169990544+172620464+169677488+164869920+162194272
1549.20+162936992+165512928+167541184+167148400+162935328+154976096+146582064
1544.70+142281536+141604448+138132144+127921024+115365592+106430856+98897080
1540.20+87258864+75686704+76768200+94397016+117369016+133385080+139218160
1535.70+137366176+130229320+120000496+111321480+109481648+114777912+122016664
1531.20+126706952+128516520+128356744+125961352+121938352+118674232+116800272
1526.70+113919680+109146208+105768912+106819016+110035064+109652872+101920856
1522.20+88402096+75908256+72777728+82009168+97505408+108971272+110546336
1517.70+105111536+100883784+102873976+108955328+114954864+119098256+120388312
1513.20+117818192+113201992+110610960+111079576+111560792+109733824+105479272
1508.70+97691232+84313032+66762892+51865088+47921676+58279140+78195688+98327288
1503.56+111658400+117197736+118277728+118505728+118809176+117421600+113162000
1499.06+108578704+107176608+107141480+103234704+96413392+95222440+104024888
1494.56+116413416+124692168+127933128+128199880+125420808+119405936+113311944
1490.06+111561280+115124688+120709992+124583336+126412480+129035864+134351424
1485.56+140707760+145486416+148446288+150876464+153098592+154673168+156039728
1481.06+158200464+161338416+164952128+168734848+172093952+173481616+172060480
1476.56+170010864+170834720+174296880+175713680+171898032+165619280+162990672
1472.06+167775968+179173040+193280560+205446112+212985856+216706320+219111728
1467.56+221250096+221961024+219611504+214421024+210065200+211581120+219380256
1463.06+227894368+232571360+234396560+235572992+235150000+231736640+225928448
1458.56+217113312+203336160+188394912+183601680+195462544+216277200+233868224
1454.06+243467680+247146768+248015120+247867776+247956544+249012368+250294176
1449.56+249929088+246972176+243062736+241394544+243480080+247532624+250631280
1445.06+251652720+251508944+251311856+251245424+251105808+250938128+250666240
1440.56+249932304+248818480+247349984+243339056+233220256+217844528+205767504
1436.06+205633952+215142960+224103904+226650608+224653936+221818864+219102640
1431.57+215696720+211127472+205908384+201681760+200003664+200136448+199754096
1427.07+198065232+195928608+193175984+188763008+183407472+179218096+177005440
1422.57+176117472+175373808+171940784+162300976+147783488+136745120+136455600
1418.07+144231552+151970128+155895344+157454288+158350128+158668320+158475920
1413.57+158237408+157929744+157305280+156621280+156260240+156185920+156243152
1409.07+156453968+156802624+157078528+156885280+155626224+153040688+150205936
1404.57+149194928+150823616+153426384+154840336+154684160+153515888+150865872
1400.07+146105472+140735504+137575616+137458112+138504400+138413168+135804768
1395.57+130466760+124376120+121343832+123260904+127638328+130640840+131028984
1391.07+129964184+128626312+127030536+124137280+118963552+112705272+108988848
1386.57+110082344+113890560+116739200+117499992+117245200+116689880+115880736
1382.07+115165584+114837064+114565600+113999168+113297320+112832688+112895272
1377.57+113450392+113766320+112843184+110565800+107950184+106256664+106347184
1373.07+108419152+111656904+114635248+116551952+117502120+117613816+116987032
1368.57+116417288+116798160+117807672+118419416+118367672+117801160+116145488
1364.07+112948000+109411568+107455776+107475584+108449448+109841960+111853800
1359.57+114095040+115524312+115762392+115392840+114939224+114394560+113795688
1355.07+113474008+113559112+113754568+113715320+113313688+112588104+111728312
1350.57+111061600+110790032+110799768+110872280+110957264+111063840+111093048
1346.07+110981480+110897360+111077336+111499728+111848560+111760912+111020672
1341.57+109635920+107929880+106520760+105962224+106291896+107025512+107623840
1337.07+107902448+108037528+108302248+108792752+109337736+109652256+109585032
1332.57+109233864+108877648+108804592+109064544+109383632+109435624+109198080
1328.07+108897472+108660240+108423392+108153304+107940960+107889368+107992296
1323.57+108124152+108162544+108113056+107974984+107519568+106533464+105319976
1319.07+104502024+104248144+104173888+104053496+104068920+104265064+104326880
1314.57+104040568+103593520+103350944+103562184+104192168+104875368+105188552
1310.07+105045336+104670592+104276128+104006000+104014320+104275136+104447792
1305.57+104246400+103855384+103744840+104126504+104726816+105096352+105096232
1301.07+105035128+105245056+105655880+105969328+106097800+106171624+106264008
1296.57+106411936+106752760+107343032+107952672+108295264+108364320+108381640
1292.07+108542184+108934504+109538136+110168168+110575152+110743240+110953520
1287.57+111435816+112082432+112638704+113035824+113354552+113608232+113828440
1283.07+114245048+115069656+116109952+116920944+117355864+117705608+118283360
1278.57+119134848+120165120+121284624+122364080+123266680+124035016+124895880
1274.07+125964376+127057704+127969000+128842424+130029224+131591088+133212664
1269.57+134651136+135991952+137386000+138829920+140345456+142049120+143914656
1265.07+145713232+147350592+149013008+150849552+152756672+154616288+156571968
1260.57+158920960+161815712+165125648+168497264+171557136+174194816+176676016
1256.07+179364736+182365904+185529488+188770288+192191536+195852944+199588336
1251.57+203186688+206670960+210266336+214087040+217972304+221729776+225464112
1247.08+229503232+233966768+238587456+243088080+247579296+252415408+257699344
1242.58+263131520+268410768+273613376+279033472+284735776+290479008+296088160
1238.08+301688800+307501824+313582304+319808736+326010208+332079424+338073280
1233.58+344138272+350269728+356301568+362208384+368173856+374306528+380549216
1229.08+386892992+393359616+399775936+405878784+411601152+417025728+422222144
1224.58+427385344+432854272+438759936+444833824+450710208+456189344+461221760
1220.08+465932448+470589280+475272128+479717696+483710304+487372800+490858592
1215.58+494086752+496981088+499654400+502188960+504520672+506587520+508335328
1211.08+509621248+510358944+510700576+510873920+510963904+510967136+510846304
1206.58+510368128+509198912+507339776+505227168+503164832+500862304+497807744
1202.08+493980864+489895328+485956000+482052544+477859680+473284192+468419040
1197.58+463255488+457750944+452115648+446695648+441507520+436165152+430412672
1193.08+424471424+418693312+413091008+407428128+401613312+395782848+390103520
1188.58+384652800+379386016+374121664+368694656+363213504+358025280+353338720
1184.08+349003136+344713248+340336960+336022720+332030016+328483008+325234304
1179.58+321970848+318502144+315001152+311896448+309411744+307255008+304985600
1175.08+302631200+300559872+298796224+296952064+294850944+292709888+290702144
1170.58+288849824+287286816+286124352+285162560+284168896+283178176+282198720
1166.08+281039104+279753408+278750368+278183296+277793728+277485120+277413440
1161.58+277450208+277235360+276788704+276448928+276236448+275874912+275364672
1157.08+275015136+274967392+275123456+275441696+275957504+276548096+276999744
1152.58+277318560+277775104+278588704+279745632+281185184+282960768+285046272
1148.08+287160896+289063520+290918336+293133536+295894496+299021632+302186592
1143.58+305144480+307908384+310795808+314147680+317966400+321983744+326055712
1139.08+330271392+334694400+339253344+343925536+348823680+354033536+359492192
1134.58+365066752+370692096+376419104+382385600+388728896+395469120+402485664
1130.08+409661632+417042464+424758368+432789696+440944576+449129440+457494592
1125.58+466220320+475261056+484435264+493702240+503190272+512940704+522767264
1121.08+532524544+542416960+552844224+563847872+574881088+585287168+594980352
1116.58+604517696+614488064+624920192+635368384+645504064+655413376+665293568
1112.08+675140928+684908544+694730944+704677440+714447616+723614976+732090880
1107.58+740123520+747933696+755585408+763129472+770654976+778185600+785649984
1103.08+792936128+799890112+806332992+812226240+817800320+823382720+829071296
1098.58+834731200+840267840+845669760+850734144+855117632+858838400+862448896
1094.08+866477760+870892032+875289472+879374912+883119744+886689280+890360832
1089.58+894238848+897945728+900940160+903310528+905818048+908890496+912050496
1085.08+914680128+916809984+918596544+919587776+919373120+918647552+918661120
1080.58+919577792+920152000+919159808+916533248+913011136+909223936+905304192
1076.08+901012160+896119552+890775872+885354176+879789184+873406144+865733376
1071.58+857141824+848299776+839306048+829797376+819624704+808930560+797772160
1067.08+786150336+774269504+762367424+750374720+738077440+725484288+712758912
1062.59+699918912+686860672+673642240+660560960+647933248+635777536+623718976
1058.09+611326080+598592640+585947456+573796160+562240384+551203776+540543552
1053.59+530047776+519558080+509098208+498741696+488482304+478326176+468341760
1049.09+458545728+448963776+439768032+431116160+422875104+414826208+407082560
1044.59+399944288+393295552+386512352+379171488+371635488+364670368+358542272
1040.09+352818848+347080896+341412512+336019616+330804896+325631680+320612352
1035.59+315783264+310857920+305639744+300405792+295616224+291438176+287736672
1031.09+284328256+281123168+278167680+275590592+273397440+271346720+269158624
1026.59+266816704+264545264+262517040+260732752+259187920+257978912+257101200
1022.09+256246544+255046224+253530720+252164112+251396016+251269120+251483888
1017.59+251722240+251866304+251958368+252056464+252247744+252744560+253761040
1013.09+255256448+256988336+258781328+260535584+262148736+263793776+266106336
1008.59+269615776+274082496+278803456+283466432+288351680+293824640+299978176
1004.09+306736672+314068000+322036096+330682624+339896960+349482304+359356608
999.59+369550912+380060480+390893184+402187680+413996032+426028352+437962624
995.09+449927104+462311392+475104864+487790464+499885440+511258848+521800224
990.59+531048256+538353024+543328448+546014848+546631232+545276288+541830848
986.09+536081856+528011040+518082400+507137792+495833248+484214944+471953248
981.59+458921696+445464736+432183904+419513120+407400800+395423040+383327072
977.09+371369568+359949216+349076480+338527520+328373632+318953120+310351584
972.59+302316640+294676864+287474176+280664064+274106240+267886656+262284400
968.09+257347776+252828320+248567760+244625088+241034944+237741040+234744208
963.59+232041008+229501232+227081200+225032016+223580016+222480256+221200192
959.09+219577344+218011808+216947824+216353952+215840000+215144928+214307136
954.59+213451200+212611376+211814080+211157936+210773984+210749184+211029808
950.09+211398848+211657008+211763376+211663312+211184848+210403344+209839904
945.59+209876288+210188656+210231840+210052864+210151520+210713088+211396128
941.09+211809072+211902992+211916384+212093424+212444672+212765488+212880864
936.59+212799664+212666160+212702288+213124480+213944784+214889872+215648032
932.09+216140992+216470704+216702128+216780048+216643680+216428960+216471888
927.59+216942400+217597008+218130000+218611584+219254496+219937968+220352480
923.09+220480400+220610336+220993824+221651792+222377520+222915488+223272640
918.59+223725872+224349168+224838880+225049600+225292080+225784416+226210064
914.09+226153424+225702144+225392976+225747520+226922816+228578800+230079056
909.59+230986096+231355696+231461264+231396000+231077744+230556128+230158448
905.09+230290176+230991952+231745664+231954736+231616048+231216992+230965264
900.59+230619232+230201104+230268720+231113664+232206816+232868512+233070816
896.09+233170096+233289440+233381056+233486480+233522176+233185632+232409328
891.59+231580384+231066192+230888112+230976288+231340192+231823008+232026672
887.09+231643792+230725296+229593728+228563072+227737184+227047728+226454656
882.59+225957408+225430400+224752704+224124384+223912048+224136672+224443536
878.10+224523760+224188608+223221920+221636848+220020912+219129536+219089200
873.60+219267808+218974016+218129344+217210512+216626160+216310768+215965680
869.10+215478160+214898704+214246400+213591984+213096496+212725152+212194560
864.60+211381536+210433792+209380656+208092512+206793968+206069040+206078992
860.10+206265056+206171456+206192544+207057136+208716032+210131856+210192608
855.60+208572608+205827472+203089024+201580240+201913808+203644256+205743936
851.10+207373568+208004848+207339344+205696784+204099040+203438016+203804352
846.60+204768928+205845664+206539728+206387536+205151728+203103008+201394352
842.10+201748512+204921760+209483232+212920000+213733424+212046400+208991520
837.60+206272272+205512352+207071680+209640128+211362240+211312208+209926784
833.10+208275520+206972240+205871600+204884080+204396400+204627344+205153424
828.60+205367952+204858032+203255840+200507776+197437552+195302752+194561712
824.10+194500144+194105600+193008672+191589456+190479120+190057088+190285040
819.60+190712608+190653344+189678608+188009376+186119088+184120256+182105472
815.10+180660544+180080192+179503472+178071200+176496448+176149328+176944400
810.60+177553664+177379408+177019520+176957296+176900512+176395456+175366560
806.10+174102032+173131040+172938496+173456752+174028352+174047808+173381424
801.60+172078112+170291952+168880192
##END=
