##TITLE=octarelline 6 front
##JCAMP-DX=4.24
##DATA TYPE=INFRARED SPECTRUM
##DATE=1/2/2005
##TIME=1:41:2
##SAMPLING PROCEDURE=film
##ORIGIN=Vincent
##DATA PROCESSING=no operation
##XUNITS=1/CM
##YUNITS=ABSORBANCE
##RESOLUTION=2
##FIRSTX=4000.283
##LASTX=800.31372
##DELTAX=-0.64282227
##MAXY=0.18853419
##MINY=0.00051455537
##XFACTOR=1
##YFACTOR=1.7558614e-010
##NPOINTS=4979
##FIRSTY=0.02245396
##XYDATA=(X++(Y..Y))
4000.28+127880023+128219568+128309944+128061208+127560856+126905568+126269832
3995.78+125906352+125822272+125745968+125700984+126179080+127328640+128368168
3991.28+128353112+127324304+126249824+125951040+126312512+126538880+126109264
3986.78+125422112+125300824+125917992+126657112+127000696+126979128+126742472
3982.28+126357512+126091888+126226392+126486136+126281000+125574880+124991128
3977.78+124959824+125245152+125443656+125542768+125696792+125747976+125458704
3973.28+125109760+125275552+125942176+126438960+126370856+126013392+125752312
3968.78+125758840+126186392+127003336+127687832+127715312+127239080+126794912
3964.28+126544480+126207624+125569608+124852816+124644888+125346736+126595040
3959.79+127523136+127664856+127208344+126492632+125812968+125510968+125584336
3955.29+125498256+124942608+124386280+124396984+124837000+125084648+124685360
3950.79+123645216+122431672+121614048+121252200+120971480+120803672+121317216
3946.29+122660008+124034560+124418384+123421576+121448832+119413296+118313336
3941.79+118716072+120391152+122439736+123908224+124511248+124780552+125311056
3937.29+126013856+126385736+126255880+125816384+125014864+123398480+120811096
3932.79+118139984+116931000+117814016+119667208+120943320+121488168+122275064
3928.29+123693864+124936864+124918408+123290016+120756920+118643368+117903232
3923.79+118606256+120433568+122833536+124429552+123689072+120928912+118394680
3919.29+117519184+117233952+115743936+113068384+111184832+111954448+115230304
3914.79+119161264+122240368+124346912+125746584+126362624+126401256+126333608
3910.29+126017896+125212264+124620088+124793592+124735904+123142176+119721192
3905.79+114209248+106436208+98530416+93882096+92677272+92040168+91200568
3901.29+92098472+94532064+95698408+95362384+96984760+102613456+110199048
3896.79+116717880+120959560+122921232+123036512+122331768+121332232+118560632
3892.29+112169320+103801464+98827448+100974960+108207408+115661592+120402448
3887.79+121000752+115438216+103675392+91331512+86390112+91191080+100835816
3883.29+109497648+114614568+115452736+111776744+105538464+101377184+102915128
3878.79+109085024+115868608+120791752+123769664+124409080+121353592+115003264
3874.29+108846672+106769440+109418448+113088152+111796032+101834936+86205536
3869.79+74000264+73119544+83408208+97945496+109149104+112552704+107903088
3865.29+99523688+94290984+96103168+102103480+106366040+106963560+107242512
3860.79+110362608+115438680+119823800+122025848+121633880+119443784+117113088
3856.29+112463528+97204936+66310728+29483918+5625092+2930501+14023779+31313418
3851.15+53497248+77710408+97571432+110010864+117050320+121202480+123535160
3846.65+124905232+125366272+123449624+118479128+112536048+108737744+108120232
3842.15+108741448+107995952+105768024+103496456+99253736+88069240+70843000
3837.65+58555656+60848864+73433120+84903752+91382760+97013120+103852976
3833.15+108380080+107728304+104366240+103396232+107158160+113500224+118722256
3828.65+120927216+120277552+117685696+114750768+113732840+115627000+118860088
3824.15+120820552+119179536+111566528+97320696+81167112+71766776+73920064
3819.65+84567792+97368712+106662776+106879664+94814984+75775744+63166576
3815.15+66711304+82925792+101023168+114007464+121223080+124566280+125760544
3810.65+126151920+126582488+126253072+122057280+111001496+95279032+83662400
3806.15+84007376+94481048+106348944+113426760+113817432+105541400+87873256
3801.65+67697024+57889116+65001336+82679744+99936112+110609872+114028152
3797.15+112239368+109010744+108435048+111861592+117040432+121138848+123480160
3792.65+125010976+126418784+127551384+127979536+127585688+126789952+126327880
3788.15+126569448+127145184+127335472+126623592+124953296+122933936+121687456
3783.65+121934312+123325808+124908792+125591472+124022000+119499768+113811880
3779.15+110692672+112221008+116784936+121339976+124330336+125894880+126638352
3774.65+126999136+127210992+127416328+127552928+126601264+122521528+114533192
3770.15+105600640+101000912+103392240+110107344+115771736+116930688+114370592
3765.65+111782616+112176272+115423088+119297408+122135976+123637304+123481232
3761.15+120507856+114303592+107375232+103986424+105604936+109144800+111160168
3756.65+111765024+112955432+115231848+116729304+113144168+99349176+76236688
3752.15+55396012+48477136+51260816+50073248+42849852+41728840+54619840+75046648
3747.01+91203928+93718248+76837928+44693168+16894358+14805106+37999780+67374616
3741.87+88716768+100918120+107774184+111668776+113376744+112145576+106222432
3737.37+95761400+83980528+74622696+70295688+72531496+79651752+85520072+85088216
3732.23+81122480+81697176+90503304+103157368+113458088+119132032+120895944
3727.73+119498088+115662672+111344448+109056352+109818664+112288584+113898632
3723.23+113023496+110696224+109932720+112484824+116640600+119348160+119782624
3718.73+119526088+120104360+121784088+123995032+125625752+125715408+124293120
3714.23+120946096+113034920+98989192+83820392+76470840+79420192+86139304
3709.73+90892672+95044624+101847992+110382040+117481000+121926112+124390632
3705.23+125721304+126501496+126499168+124221960+118778408+112263576+108775328
3700.73+110620680+116264616+122150072+125905112+127548912+128176872+128413040
3696.23+128385088+128137600+127549672+126629808+125646072+123730456+118664112
3691.73+110437528+102998744+98498808+92238192+79358848+65077780+61627440
3687.23+73638768+92996088+109361576+119016008+123498136+125280200+126157504
3682.73+127081088+127911384+127858608+126350680+123529120+120510960+118799752
3678.23+117811856+113036920+99268616+77453480+57284464+50369336+60119764
3673.73+79911960+99173472+108712952+104150960+89285752+75005912+70499552
3669.23+75968656+86458808+98750720+111179608+121262720+127373496+130400688
3664.73+131875000+132476080+132867768+133652376+134446592+134750304+134862400
3660.23+134895104+134524272+133898568+132302504+126870184+116488680+106173968
3655.73+103190248+108947736+118511600+126614760+130318168+128122992+120169520
3651.23+108300888+94630712+81604384+73131832+72273120+77797272+86163416
3646.73+95978560+107512112+119419640+129092504+135314880+138566016+139716992
3642.23+139818384+140147408+141263984+142518352+142978464+142482112+141696400
3637.73+141538416+142468672+144030224+145012384+144274160+141778208+139100432
3633.23+138472480+140500976+142653584+140331216+129960296+112200328+93323840
3628.73+82525032+85359520+99329240+116845848+131576312+141419472+147375008
3624.23+151154928+153582736+154545648+153875008+151460576+146698496+139396128
3619.73+131619072+126930696+127123152+131168976+137244800+143662400+148373056
3615.23+150087776+149509184+147718192+144768544+141829264+142063008+146081904
3610.73+149150256+146711024+140657968+136880944+138091600+142354208+147413504
3606.23+152878640+158590864+163555616+166870000+168515520+169045680+168987920
3601.73+168717216+168605936+168892096+169303152+169428512+169593344+170429648
3597.23+171434560+171254912+169725184+168296944+168178896+169315152+171281424
3592.73+173900848+176894960+179630496+180946160+179197568+173764032+166664336
3588.23+161184592+158777280+158902752+161467520+166904528+174004448+180108816
3583.73+183793696+185817760+187362544+188615392+189318112+189752448+190565696
3579.23+191812816+192796144+193169760+193615472+194832064+196400048+197423680
3574.73+197777392+198005280+198482080+199254416+200248992+201213616+201666528
3570.23+200975984+198458432+193932448+188391680+183565184+180733152+180560448
3565.74+183480080+188994736+195101488+199809408+202910128+205295104+207170784
3561.24+208094000+208303936+208853120+210393264+212426240+213983248+214749952
3556.74+215248992+215982448+216894960+217718624+218189264+217878656+216699584
3552.24+215635168+216018992+217986352+220514048+222678768+223945872+223804192
3547.74+222298896+220550320+219855424+220585616+222335152+224545376+226752240
3543.24+228823904+230990720+233238480+235063488+236230576+237140848+238075488
3538.74+238751328+238918064+238758624+238615904+238846320+239783216+241367472
3534.24+243123648+244736928+246192240+247247104+247527360+247216304+246942288
3529.74+246971440+247075072+247085488+247056960+247133216+247590096+248629088
3525.24+249899808+250797168+251361296+252270288+253788704+255435888+256853216
3520.74+258290000+259951504+261494448+262470464+262891168+263116128+263468848
3516.24+264106544+265100160+266487248+268193680+269890432+271088896+271586560
3511.74+271714400+271907232+272281152+272865664+273898208+275425344+276942560
3507.24+277962144+278642688+279383872+280077664+280294112+280073056+280068608
3502.74+280857056+282363584+284056672+285557184+286885280+288140672+289252192
3498.24+290173760+291071264+292103808+293184096+294092512+294735840+295283808
3493.74+296107392+297399072+298865632+300099008+301150464+302189248+302856672
3489.24+302823008+302700544+303391296+304759456+305997792+307010368+308273376
3484.74+309637568+310414016+310481184+310407840+310674944+311370912+312402432
3480.24+313564608+314665024+315772320+317051968+318357856+319298880+319691424
3475.74+319775296+320108000+321205984+322962048+324512000+325108512+325043424
3471.24+325260672+326238784+327680320+329108640+330308000+331261824+332024320
3466.74+332658880+333206528+333735584+334359936+335042528+335547488+335791648
3462.24+336075200+336734912+337730656+338755104+339649120+340496928+341411712
3457.74+342326304+343004320+343345440+343691680+344591360+346098912+347577600
3453.24+348385760+348497408+348310848+348231136+348626400+349655392+350817408
3448.74+351191520+350571744+349942208+350429184+352059968+353929568+355302208
3444.24+356176480+356904736+357635392+358273120+358857152+359638752+360638752
3439.74+361434304+361753504+361934688+362411744+363067872+363578880+364071424
3435.24+364989504+366490560+368246400+369642368+370164032+369898496+369582592
3430.74+369767968+370202176+370422592+370584256+371173984+372270688+373495808
3426.24+374368832+374493152+373940064+373544608+374157152+375496288+376406400
3421.74+376334688+375921504+376117888+377243712+378862016+380172192+380646048
3417.24+380556288+380662944+381179712+381496512+381180352+380808576+381382496
3412.74+383115200+385153664+386421664+386570240+386055936+385519040+385328992
3408.24+385684800+386694528+388100832+389269024+389817312+390040832+390359456
3403.74+390680928+390733088+390772640+391380096+392613568+393870496+394623488
3399.24+394862656+394698048+393976960+392642880+391287200+390900384+391865088
3394.74+393411776+394357888+394389024+394294272+394889984+396105216+397331840
3390.24+398228544+398825920+399145056+399177824+399031040+398782144+398349792
3385.74+397774912+397421312+397672384+398568896+399854240+401187200+402212992
3381.25+402640096+402460544+402148096+402429824+403593440+404987936+405614624
3376.75+405324352+404993728+405363648+406219680+406900480+407097920+406952160
3372.25+406875488+407390304+408634816+409993056+410645344+410451456+409989216
3367.75+409854528+410099744+410155104+409373472+407948800+407008032+407287200
3363.25+408202688+408805952+409018336+409259904+409589408+409941728+410440672
3358.75+410909024+410886752+410553952+410730944+411620576+412476992+412798944
3354.25+412886048+413056576+413206432+413348064+413832544+414846656+416132672
3349.75+417248416+417863840+417923392+417683744+417448960+417235328+416901184
3345.25+416493920+416169440+415883552+415515168+415259680+415583872+416681152
3340.75+418156768+419384512+420096032+420444320+420515936+420197056+419669088
3336.25+419557152+420114784+420737408+420835296+420787008+421299264+422194784
3331.75+422628672+422331360+421883552+421845504+422261600+422952992+423735872
3327.25+424322976+424432704+424048544+423407424+422832640+422674656+423181440
3322.75+424222144+425267552+425786944+425639264+425111360+424667936+424651488
3318.25+425100544+425737312+426121760+425974112+425560480+425634528+426682976
3313.75+428299904+429686240+430580160+431194208+431483968+431175392+430454944
3309.25+429955136+430044064+430596192+431366048+432139104+432705728+433013792
3304.75+433167136+433113184+432693152+432104736+431860512+432192000+432922816
3300.25+433879968+434879008+435398464+434937344+433801472+433023968+433296224
3295.75+434207840+434704320+434209792+433207712+432675584+433034496+433861184
3291.25+434552448+434879360+434847392+434513760+434133184+434017600+434080128
3286.75+433910240+433425152+433010112+432876992+432721568+432195488+431376192
3282.25+430650560+430316832+430393888+430702144+431076800+431414656+431460128
3277.75+430835872+429599584+428455936+427930592+427658240+427075744+426389888
3273.25+426150272+426333856+426613760+427017760+427496288+427450432+426581696
3268.75+425553792+424942112+424252832+422892128+421346144+420397152+419844384
3264.25+419011168+417957216+417292544+417137760+416987904+416430400+415602624
3259.75+414947104+414562688+413873856+412323584+410419584+409394784+409589216
3255.25+409978112+409622592+408754656+407976128+407214944+406116448+404872512
3250.75+404067456+404017760+404627488+405601440+406393952+406231968+404698048
3246.25+402389248+400524256+399699808+399397952+398951680+398437056+398177120
3241.75+397925888+397245440+396281408+395530336+395129696+394819776+394315008
3237.25+393435072+392273344+391393984+391317088+391729856+391728640+390872096
3232.75+389495456+388124416+387086880+386515904+386240672+385804704+385030304
3228.25+384395776+384477760+385076320+385268032+384448864+383092800+382194784
3223.75+382048576+381954784+381191552+379819104+378411712+377445664+377060352
3219.25+377044352+377011552+376835424+376724000+376678176+376301024+375456672
3214.75+374586848+374122144+374022816+374058944+373950176+373308544+372102208
3210.25+371070656+370934656+371332096+371219712+370191904+368828512+367815744
3205.75+367212288+366645952+365941952+365356224+365119200+364997696+364583552
3201.25+363859488+363113216+362496960+361978944+361529472+361064576+360416512
3196.76+359519392+358415264+357167552+356064448+355611936+355866816+356134080
3192.26+355785440+354996672+354274880+353775776+353440352+353285120+353152160
3187.76+352591648+351357184+349807936+348633184+348205984+348236384+348071584
3183.26+347364864+346342208+345359488+344518112+343845792+343455904+343289056
3178.76+343027072+342461248+341703712+340994720+340546336+340490496+340677088
3174.26+340653248+340117312+339246464+338332864+337356288+336216352+335130496
3169.76+334444800+334176672+334056544+333959328+333974176+334088384+334073536
3165.26+333742880+333122688+332356192+331625440+331129344+330918208+330780320
3160.76+330498720+330126368+329778336+329313568+328494752+327382592+326346432
3156.26+325691040+325384768+325124320+324638304+323980064+323474784+323341984
3151.76+323457472+323487360+323129184+322298912+321260224+320499520+320252000
3147.26+320181184+319808160+319165344+318702144+318535264+318226400+317458624
3142.76+316566880+316063776+315940960+315795392+315406976+314836960+314145856
3138.26+313374304+312569088+311684256+310749024+310159840+310266272+310671904
3133.76+310582176+309840288+308945632+308210912+307613312+307303168+307419008
3129.26+307510848+306887552+305513024+304067040+303143776+302725536+302411840
3124.76+301936704+301359296+300773504+300110624+299414528+299036320+299152608
3120.26+299399360+299368384+299186560+299209696+299463104+299652448+299428960
3115.76+298594816+297386784+296470144+296274432+296447936+296276064+295485664
3111.26+294440064+293721952+293612224+293843296+293924512+293693888+293248192
3106.76+292435488+291050528+289515360+288674112+288795360+289300768+289462656
3102.26+289041952+288380192+288054048+288208256+288296864+287852640+287245216
3097.76+287108448+287342048+287310304+286779808+286078976+285539488+285211872
3093.26+285001120+284819648+284588736+284146656+283295296+282165600+281395520
3088.76+281544384+282416608+283318752+283781376+283720032+283215936+282524864
3084.26+281989152+281632768+281111744+280203136+279126880+278289088+277878848
3079.76+277744704+277585056+277306336+277163520+277421952+277988544+278455584
3075.26+278444704+277888064+277075616+276386272+275882816+275345088+274690016
3070.76+274098144+273731712+273595872+273562592+273353472+272810848+272272768
3066.26+272125472+271983136+271148416+269892736+269255200+269540896+269978240
3061.76+269862944+269170368+268237552+267554592+267556864+267991088+267971392
3057.26+267106016+266034912+265536720+265676736+265981408+265959072+265384576
3052.76+264480752+263722896+263317152+263127280+263074304+263149392+263112672
3048.26+262692752+261956096+261149536+260429376+259975872+259909216+259952624
3043.76+259730080+259383776+259300752+259333360+259027376+258444336+258039632
3039.26+257916576+257825744+257647728+257290448+256457568+255137408+254076240
3034.76+254083424+254970064+255677328+255474960+254639104+253896688+253577824
3030.26+253532912+253593664+253747696+253923968+253962672+253837552+253670112
3025.76+253498576+253227472+252849104+252522176+252388304+252386848+252334096
3021.26+252168080+252016448+251942976+251745504+251233504+250647376+250415728
3016.76+250533856+250648064+250728816+251091680+251622400+251664336+250960352
3012.27+250166816+250016576+250364016+250494512+250109408+249549168+249113296
3007.77+248663488+248071952+247671872+247890096+248596480+249202128+249355952
3003.27+249244224+249216496+249383808+249617328+249799168+250004016+250390128
2998.77+250896224+251248528+251401744+251660128+252128912+252463408+252427344
2994.27+252262112+252207296+252188352+252257232+252747344+253653584+254384048
2989.77+254460864+254101568+253919376+254323104+255265728+256364224+257272112
2985.27+257980384+258651696+259290128+259850608+260443648+261083024+261485120
2980.77+261538048+261656848+262293904+263359968+264430512+265262640+265925424
2976.27+266612672+267470960+268479072+269538752+270650048+271823328+272842432
2971.77+273474816+273901344+274596448+275774720+277200480+278463328+279284320
2967.27+279747936+280311648+281384640+282833920+284138208+284923008+285158464
2962.77+285027072+284901536+285181120+285856544+286465440+286675840+286697024
2958.27+286891712+287235136+287373024+287094848+286539264+285928736+285311648
2953.77+284644960+283976160+283319936+282502720+281430080+280363648+279671392
2949.27+279428064+279485536+279698784+279878720+279815488+279593632+279610976
2944.77+280097312+280824544+281386624+281550496+281382496+281232160+281495968
2940.27+282203968+283043552+283824384+284631424+285526432+286464608+287449056
2935.77+288406880+289076544+289411136+289823648+290621888+291564192+292268416
2931.27+292673280+292824608+292726848+292633472+292916736+293509600+293998720
2926.77+294306400+294653792+294924320+294772352+294295104+293911040+293650080
2922.27+293181792+292441312+291672864+290903136+289891936+288620416+287434304
2917.77+286553856+285728288+284577152+283204704+282134368+281532480+280872608
2913.27+279645984+278030784+276487968+275058240+273549888+272090592+270936384
2908.77+269907200+268501920+266593328+264705504+263490800+262989040+262533264
2904.27+261528864+260159632+259061584+258504912+258334320+258440880+258680032
2899.77+258565296+257768144+256790912+256464768+256856144+257207024+256881024
2895.27+255938928+254871824+254053200+253457264+252822624+252039456+251253568
2890.77+250627504+250261264+250261728+250502192+250504960+250033216+249537104
2886.27+249493552+249651248+249524704+249194320+249017920+248967344+248820960
2881.77+248628928+248564880+248645552+248848848+249144608+249338800+249273072
2877.27+249126192+249159936+249311408+249367824+249326736+249270976+249123248
2872.77+248797008+248411488+248165856+248095280+248023216+247709344+247068064
2868.27+246211440+245221136+244060720+242883904+242081248+241746544+241451504
2863.77+240911584+240428160+240309568+240344976+240324672+240497072+240991056
2859.27+241276928+240849504+240035664+239566704+239652768+239984976+240364784
2854.77+240803984+241156832+241179248+240906384+240626416+240501440+240443776
2850.27+240317696+240045408+239609280+239072512+238467200+237606736+236306496
2845.77+234850304+233789056+233117984+232124016+230321696+228156272+226505168
2841.27+225765680+225604944+225367232+224632240+223579216+222740704+222284688
2836.77+221836496+221138208+220426384+219913280+219454592+219044272+219011424
2832.27+219338240+219380784+218693136+217646512+216857312+216412848+215983600
2827.78+215360416+214616816+213969216+213637648+213689248+213933088+214117936
2823.28+214201872+214279184+214285792+213999296+213401552+212831408+212632672
2818.78+212751568+212817920+212550912+211969904+211300336+210818528+210695728
2814.28+210824128+210881776+210655248+210205632+209708128+209318704+209118784
2809.78+208976656+208545136+207739296+207050704+206994000+207405952+207687344
2805.28+207576864+207275792+206980672+206695696+206410880+206106896+205722848
2800.78+205329408+205177680+205375216+205688400+205819440+205689680+205311760
2796.28+204643248+203777344+203052720+202711552+202582768+202327408+201880736
2791.78+201451904+201223984+201264144+201586080+202022928+202189632+201833216
2787.28+201154752+200585184+200329104+200275072+200248208+200179456+200103040
2782.78+200084816+200112800+200044544+199768672+199379552+199055632+198780192
2778.28+198375200+197856768+197564016+197766528+198265280+198605728+198651600
2773.78+198661968+198808592+198945840+198909584+198718016+198356832+197732208
2769.28+196938944+196286256+195952560+195842272+195812592+195806192+195827888
2764.78+195948080+196243152+196594464+196707792+196458288+196071440+195867648
2760.28+195924928+196021328+195879296+195508304+195232144+195274576+195431568
2755.78+195384512+195137392+194872096+194610672+194346880+194283728+194602688
2751.28+195189232+195786416+196200224+196238512+195800464+195156688+194793632
2746.78+194847040+194961904+194811952+194502704+194346224+194426448+194543840
2742.28+194551984+194590752+194878800+195327376+195568928+195383712+194900192
2737.78+194384208+194022208+193923664+194096688+194429808+194838928+195345872
2733.28+195835744+195961008+195584576+195121744+195065584+195315408+195377952
2728.78+195149984+195043104+195304736+195673776+195860464+195985248+196329344
2724.28+196873488+197341440+197567856+197640048+197764800+198090576+198626464
2719.78+199241296+199776032+200171152+200500784+200871536+201283504+201589120
2715.28+201683824+201750368+202145968+202961056+203861872+204511456+204954576
2710.78+205458992+206162336+207000064+207842704+208613648+209340208+210084960
2706.28+210766832+211209456+211476688+211910128+212691152+213627360+214559264
2701.78+215630016+216902080+218090848+218974528+219786448+220889760+222254384
2697.28+223510304+224424320+225141296+225987280+227097408+228287088+229372048
2692.78+230496144+231901328+233436304+234708944+235732032+236933984+238479552
2688.28+240041664+241336416+242467776+243638016+244917536+246370240+248049808
2683.78+249832096+251522688+253069888+254466736+255627344+256625056+257837520
2679.28+259573040+261662720+263649072+265245712+266505136+267680256+269031968
2674.78+270647904+272386496+274062432+275667776+277335200+279123104+280899360
2670.28+282455456+283751776+285045952+286669216+288655360+290737632+292701632
2665.78+294508992+296068000+297278720+298384384+299916736+302065984+304400800
2661.28+306397728+308001216+309499424+311097536+312784672+314479520+316140640
2656.78+317793696+319507328+321312768+323155872+324963232+326711008+328428384
2652.28+330164480+331935616+333661536+335244416+336758912+338456576+340453632
2647.78+342575552+344588352+346424320+348071872+349467776+350693376+352104640
2643.29+354049984+356482656+358966752+361068480+362763744+364435456+366430688
2638.79+368659968+370757376+372546944+374162304+375765024+377382816+379007552
2634.29+380653312+382348640+384177088+386217440+388354176+390335648+392130976
2629.79+394029728+396252512+398649952+400897664+402855712+404644160+406473664
2625.29+408442080+410433536+412251104+413865440+415471936+417267616+419289184
2620.79+421463648+423696160+425873568+427922016+429893056+431891712+433908448
2616.29+435840608+437688928+439583104+441605216+443690912+445762592+447857792
2611.79+450040160+452240416+454250528+455967296+457609952+459573472+461949440
2607.29+464326944+466298528+468010752+469918432+472083456+474151392+475975296
2602.79+477787360+479706560+481557184+483295392+485170208+487288480+489382368
2598.29+491158048+492671232+494233248+496088096+498209280+500344480+502264640
2593.79+503983296+505686656+507513984+509479328+511520640+513510112+515316128
2589.29+516922880+518436992+519995168+521763104+523863616+526115232+528023552
2584.79+529331776+530428416+531912800+533892224+535924032+537578304+538875072
2580.29+540210176+541896704+543773504+545386688+546637184+547976640+549786880
2575.79+551889024+553886592+555659072+557274880+558737792+560092992+561550400
2571.29+563262336+565097408+566745984+567965888+568769280+569468480+570453760
2566.79+571859776+573496832+575106496+576540160+577775040+578954432+580318656
2562.29+581936128+583638208+585296320+586994944+588785728+590477760+591785280
2557.79+592594944+593116672+593841728+595190848+597040832+598771072+599911168
2553.29+600601984+601380096+602632000+604262592+605805184+606918976+607784512
2548.79+608821056+610090112+611340096+612529856+613825856+615122816+616100992
2544.29+616778304+617540288+618610624+619862208+621131904+622406272+623710272
2539.79+625042944+626374080+627607296+628660544+629627776+630734720+632067328
2535.29+633430720+634538304+635296960+635901248+636635968+637605376+638681856
2530.79+639721280+640730432+641775168+642804864+643718080+644607744+645770240
2526.29+647287872+648735040+649578944+649893568+650312768+651249856+652513792
2521.79+653740800+654792768+655649664+656324800+657006080+657923008+658987264
2517.29+659912832+660679872+661547392+662622720+663747328+664828928+665975296
2512.79+667208896+668299776+669049536+669627328+670395840+671423040+672363008
2508.29+672940480+673350656+673999680+674996288+676073984+676962944+677681728
2503.79+678504000+679670976+681113152+682481024+683479424+684114048+684557184
2499.29+684941952+685385408+686038208+686986240+688146880+689304128+690225920
2494.79+690805824+691190976+691683072+692417408+693236736+693948416+694537088
2490.29+695038336+695424256+695748992+696191552+696819008+697483584+698054784
2485.79+698549248+698957184+699198592+699343616+699615936+700085888+700634560
2481.29+701235840+701956096+702646272+703012736+703074432+703210624+703673280
2476.79+704344896+704988288+705435136+705540032+705202880+704507392+703703744
2472.29+703082816+702889472+703208000+703854208+704476480+704778624+704657728
2467.79+704232448+703817920+703692928+703793984+703797952+703546368+703186496
2463.29+702873664+702597824+702358976+702257088+702312960+702333632+702055168
2458.80+701369152+700414464+699480512+698807360+698466496+698397760+698420928
2454.30+698221120+697591360+696774464+696284480+696228160+696141568+695697088
2449.80+695227008+695220096+695581504+695774592+695504192+694903040+694158208
2445.30+693358976+692681088+692381312+692469120+692585600+692361600+691851456
2440.80+691442112+691335232+691295360+691031488+690651520+690508736+690694912
2436.30+690929728+690949632+690793280+690691776+690788608+690986688+691065536
2431.80+690965760+690868928+690913408+690969280+690851456+690598400+690402304
2427.30+690376832+690490048+690598592+690561600+690442880+690496448+690801088
2422.80+691109184+691245568+691340544+691479552+691514624+691435456+691492160
2418.30+691738176+691876416+691754880+691606080+691599040+691519680+691095424
2413.80+690425088+689920256+689874816+690160384+690385536+690335808+690120384
2409.30+689868096+689543936+689147584+688786240+688455168+688066496+687733696
2404.80+687646848+687635648+687289856+686521920+685647168+684891200+684222336
2400.30+683627520+683172800+682763840+682182080+681426624+680750464+680283904
2395.80+679839040+679167680+678259072+677282048+676385344+675680192+675241472
2391.30+674949952+674490752+673699520+672771200+671933312+671108736+670140544
2386.80+669130944+668263168+667439040+666368192+664968448+663466176+662130432
2382.30+661032640+660057600+659055680+657940864+656654720+655114624+653316416
2377.80+651433152+649675072+648058752+646445504+644750656+642968320+641037312
2373.30+638876288+636540928+634185792+631865280+629502592+627065280+624640896
2368.80+622331648+620141376+617979520+615720128+613320896+610944128+608886144
2364.30+607285632+605984704+604738688+603425536+601989952+600416256+598879424
2359.80+597696448+596946240+596357248+595708736+595114560+594803264+594849216
2355.30+595205696+595801344+596527680+597262272+597922816+598435840+598768448
2350.80+598975040+599054080+598781056+597906368+596452352+594588800+592356224
2346.30+589753088+586944704+584174336+581606720+579356352+577454208+575742016
2341.80+574056064+572463808+571042880+569555264+567696768+565525248+563342464
2337.30+561272000+559232704+557199296+555290688+553674176+552459008+551574336
2332.80+550739136+549687232+548409280+547098688+545919040+544897856+543979968
2328.30+543073216+542075264+540939712+539779328+538820096+538134848+537496832
2323.80+536646496+535612800+534581216+533597504+532656832+531869664+531246944
2319.30+530528384+529520224+528384416+527376096+526533632+525741568+524843328
2314.80+523669024+522214688+520750432+519485856+518322464+517147008+516046720
2310.30+515007072+513778272+512293312+510845216+509661024+508616544+507497856
2305.80+506273184+505030240+503814848+502559584+501156768+499651552+498294784
2301.30+497266336+496430656+495500288+494270176+492628960+490629440+488649664
2296.80+487158336+486187296+485279264+484056736+482626240+481307008+480162080
2292.30+478951936+477529728+476085952+474858688+473749600+472489216+471054976
2287.80+469637792+468286688+466896384+465449056+464017664+462626944+461277120
2283.30+459970496+458657440+457344928+456167104+455141056+454028000+452687008
2278.80+451292928+449979840+448654944+447312192+446095552+444929248+443602848
2274.31+442246464+441168160+440250080+439084416+437663488+436382432+435402720
2269.81+434496608+433444096+432210944+430832896+429394336+428066240+426988320
2265.31+426143616+425376480+424466816+423268736+421854016+420425664+419052192
2260.81+417624000+416138912+414821024+413863744+413192448+412575456+411848480
2256.31+410939328+409770144+408299712+406680320+405252288+404268800+403611808
2251.81+402856480+401683616+400194624+398775328+397684992+396905120+396327840
2247.31+395880672+395380000+394521856+393207328+391715200+390414720+389416576
2242.81+388595040+387765056+386796064+385721120+384750560+383999040+383273504
2238.31+382292736+381008192+379571264+378169472+377022272+376267904+375749184
2233.81+375146432+374386976+373642368+372935360+372069952+370982656+369888384
2229.31+369041920+368467424+367911392+367059936+365921248+364885632+364223648
2224.81+363681856+362860032+361784224+360786976+359989152+359250240+358501984
2220.31+357788352+357065568+356201504+355192032+354209888+353415872+352822048
2215.81+352340416+351850560+351148544+350017952+348576992+347412672+347030304
2211.31+347190688+347144672+346500928+345503936+344487456+343495680+342521888
2206.81+341731968+341230944+340794720+340054368+338954976+337864992+337152192
2202.31+336731072+336229728+335523328+334844192+334375488+334012160+333559104
2197.81+332919264+332094464+331199968+330431488+329889856+329496832+329158528
2193.31+328861600+328554848+328109376+327449216+326609408+325677376+324783360
2188.81+324057376+323502464+323003008+322504288+322032064+321529152+320874592
2184.31+320091936+319371680+318854240+318516640+318247712+317930944+317477024
2179.81+316875392+316211488+315572480+314959520+314304576+313592864+312938912
2175.31+312485408+312209408+311896512+311376576+310724736+310130240+309654624
2170.81+309235808+308857248+308560800+308291424+307902208+307360416+306835808
2166.31+306481664+306208224+305793568+305193248+304576544+304047200+303481632
2161.81+302770688+302051840+301536960+301205408+300876256+300529792+300288256
2157.31+300089344+299681920+299011360+298341472+297876320+297506816+297075072
2152.81+296652864+296368832+296143456+295791040+295289472+294785504+294379296
2148.31+294039904+293672448+293188224+292573056+291948576+291510432+291291008
2143.81+291065664+290617920+290023392+289515040+289159584+288841248+288484576
2139.31+288117792+287756736+287398368+287075328+286798016+286501856+286138400
2134.81+285731744+285318432+284937280+284646976+284421344+284106144+283625440
2130.31+283138112+282804000+282524192+282105952+281592928+281223264+281102496
2125.81+281051616+280807552+280306816+279702112+279151776+278700128+278340416
2121.31+278042272+277724608+277367200+277131872+277150976+277259136+277158912
2116.81+276781984+276284544+275816608+275489632+275375424+275369824+275239456
2112.31+274914240+274516032+274146752+273853408+273687424+273543168+273160000
2107.81+272526560+272015168+271889632+271979488+271970144+271693952+271084096
2103.31+270222752+269446656+269040000+268865792+268592640+268161152+267757152
2098.81+267516304+267467520+267567744+267644272+267503344+267170240+266826160
2094.31+266550624+266333216+266211248+266165456+265993248+265517856+264853184
2089.82+264300608+264041408+264002880+263974496+263819664+263592176+263433904
2085.32+263355184+263221552+262997424+262861152+262961984+263133648+263008528
2080.82+262464256+261818768+261437600+261227024+260765216+259947072+259224480
2076.32+259070400+259411776+259730400+259605632+259057152+258442672+258062848
2071.82+257874992+257644960+257345072+257193616+257278496+257387280+257293888
2067.32+256991248+256564544+256054016+255531840+255148848+255007488+255057824
2062.82+255114544+254953056+254487808+253921680+253635168+253852912+254444480
2058.32+255024640+255219632+254899280+254243696+253541712+252961920+252544880
2053.82+252328896+252294624+252289552+252154032+251879456+251510928+251051872
2049.32+250592768+250348064+250378864+250440368+250301392+250048848+249884144
2044.82+249786304+249562048+249110032+248473904+247787248+247282480+247175072
2040.32+247406768+247686560+247819008+247783504+247513504+246979936+246475456
2035.82+246354752+246479984+246378720+245946480+245538288+245407872+245495136
2031.32+245639568+245610736+245153760+244400640+243950896+244145152+244567296
2026.82+244595456+244119952+243454848+242903600+242616080+242562256+242511504
2022.32+242272944+241959648+241799520+241789280+241714992+241380112+240683440
2017.82+239703136+238852160+238654224+239178736+239869472+240111200+239839728
2013.32+239470064+239360768+239500752+239667408+239695984+239533552+239176128
2008.82+238693200+238261520+238076944+238199008+238477088+238624208+238419296
2004.32+237920160+237445440+237272960+237403072+237630752+237734480+237561312
1999.82+237066560+236374128+235749376+235423280+235433328+235602448+235709488
1995.32+235674944+235496416+234941264+233599616+231580112+229935296+229812832
1990.82+231089808+232401072+232703280+232302592+232137248+232583440+233342512
1986.32+234026928+234386560+234282160+233846400+233427072+233168192+232943984
1981.82+232775200+232825744+232928256+232681088+232112960+231714496+231718384
1977.32+231860208+231900848+231939904+232112816+232323808+232372368+232174512
1972.82+231825424+231472464+231141744+230762496+230338688+229884992+229193280
1968.32+228018048+226599888+225697184+225902800+227091104+228568272+229636976
1963.82+230018976+229892752+229594464+229328992+229159488+229094320+229065200
1959.32+228982096+228925952+229082016+229387088+229446256+228977040+228163856
1954.82+227454896+227133264+227176576+227420608+227678272+227743712+227499808
1950.32+227103216+226865664+226878576+226912384+226688240+226058992+225095616
1945.82+224256576+224083728+224201056+223212928+220513872+217740672+217257744
1941.32+219349552+222076816+223778352+224507600+225018096+225491120+225664544
1936.82+225493344+225217696+225055904+225050224+225087856+225011184+224788368
1932.32+224544400+224362784+224190064+224007552+223925552+223991712+224082736
1927.82+224094048+224060160+224035616+224007232+223783520+222842320+220783872
1923.32+218310352+217043200+217817488+219855744+221873776+222687296+220721648
1918.82+215307344+209248912+207429696+211278352+217013760+220632352+221934704
1914.32+222642464+223283920+223454624+223166144+222592432+221680112+220670240
1909.82+220062336+219932272+220019296+220272304+220726640+221227024+221650752
1905.33+221989728+222133408+222018608+221865696+221888272+222037952+222225488
1900.83+222416624+222461152+222243072+221956496+221884880+222045360+222143424
1896.33+221725408+220610576+219443616+219236272+220048960+220979408+221573328
1891.83+221894400+221138208+218196496+214100272+211924576+213378576+216990720
1887.33+220262640+222087280+222661808+222440192+221838608+221300896+221157056
1882.83+221499008+222152928+222760704+223043024+223027520+222966224+223049008
1878.33+223212768+223209056+222957024+222746176+222877328+223260832+223617936
1873.83+223803056+223748496+223473504+222961408+221336960+216904784+209592416
1869.33+202848688+200940960+204334336+209761408+214427264+217944832+220685728
1864.83+222544208+223511600+224022720+224433328+224786592+224999040+224982752
1860.33+224764784+224550224+224543760+224787888+225205424+225626144+225892128
1855.83+226041856+226179328+226252352+226301616+226622960+227213104+227575456
1851.33+227482368+227240896+226917040+226108896+224671952+223142256+222442128
1846.83+222660048+221080336+213119200+198664192+186527952+187128944+199852240
1842.33+214092384+222330992+225482688+226933040+227654848+227546512+226953904
1837.83+226038304+225096096+225022000+225982112+226910256+227100144+226843840
1833.33+226511328+226123920+224862944+220593840+212442464+204358864+202608672
1828.83+208633520+217730384+224547792+226277216+222353712+215466752+211433936
1824.33+213862368+220050400+225024576+227273056+228283664+229109376+229682608
1819.83+229809744+229297472+228121680+226904448+226407936+226694864+227369552
1815.33+228104880+228562608+228481920+227935104+226916240+225022816+222335504
1810.83+220222656+220324992+222642784+225302944+226583232+226773248+227385248
1806.33+228815648+229961200+230116992+229526672+227924784+224638544+220542256
1801.83+217603216+216051168+214457008+212975232+213824096+217807680+222551152
1797.33+225012768+224529552+223145808+223026880+222797008+217493264+204757408
1792.83+190572384+184994976+191106048+202582912+212656928+219778736+224544400
1788.33+226907520+227534416+227528896+225959984+221464032+216381952+215242048
1783.83+218857568+223501744+225631440+224450288+221110784+218123888+218053184
1779.33+220824336+223970416+225971776+226712320+225510144+222462272+220065872
1774.83+218568976+212030912+195527472+175084048+164324992+170118224+186598864
1770.33+203007296+211463024+209778416+203009680+200575280+207055376+217484400
1765.83+224578768+226891344+227166880+225851584+220025600+208916496+198186400
1761.33+196172784+204752784+216781184+224257392+225248704+221598832+215148464
1756.83+209409824+209587776+216250016+223736080+227817904+228589760+224303232
1752.33+211336160+193894640+184783536+190179904+201620320+208819120+211256832
1747.83+213691984+217962064+222841840+227075888+229625840+229673216+227942240
1743.33+226898624+228793504+232462112+232245920+223500624+210654784+205294320
1738.83+212672672+225702000+235408688+238592384+232505360+211838512+177737232
1734.33+145469696+135330912+153321552+185769776+213552608+226688416+227731120
1729.83+225923312+227917008+233205776+237789664+239670320+239790208+239567840
1725.33+239176272+238087680+236420240+235236656+235536464+237188224+238841920
1720.84+238561696+233959696+221705920+199250720+170806544+150768032+152767472
1716.34+172327280+191348592+200514368+206229968+216082704+227788672+235915264
1711.84+239812784+240968960+240143840+239505488+241331072+243562368+241894960
1707.34+235801584+228744992+224071456+223122576+225473680+230115376+236870720
1702.84+243030288+237968528+209966352+164622624+131366256+138208976+179285072
1698.34+222940752+242345488+229314112+196491984+174024368+186801904+226965376
1693.84+265885552+287627264+296554976+301617952+305022976+306454816+308439232
1689.34+312768800+317993504+323722112+330541856+332256160+316653824+281161472
1684.84+244751680+235284992+260110688+300849248+337011296+360390400+372263808
1680.34+377943264+383104512+390459488+399068256+406115072+407165024+397709376
1675.84+380467584+369714240+379309344+404780672+427653824+436971328+437233120
1671.34+436451904+434503264+428190304+422358304+427485248+446176224+469246432
1666.84+486752672+496994848+503679296+508339456+508413216+502792672+497077312
1662.34+500092896+513930912+531383648+545113600+554518720+562181952+568842816
1657.84+574393216+579339776+582526144+580135232+567194048+538332352+492520128
1653.34+445155712+429441536+465348512+531410528+589510784+620993600+629158208
1648.84+624628480+615186112+603645120+590825408+581573056+585775296+607030848
1644.34+633944256+651656384+657359424+658088256+658477952+658042816+656955008
1639.84+655945792+652844480+645769152+635788928+621157952+596204928+564195840
1635.34+544348288+552650560+579740416+602945600+611376384+609047744+602961920
1630.84+596194432+588719872+578696832+564294848+547281600+532855104+524327872
1626.34+519683232+513277696+499565856+477642368+454385152+439938816+437330176
1621.84+439845312+439603168+434531200+427109952+418760000+405035200+378266720
1617.34+340014976+309553216+308239648+332101920+356879232+367630464+367602752
1612.84+364573664+360943040+356782688+352981728+349397504+345416672+342143136
1608.34+340462272+339033024+336857440+335031584+334279776+333698304+332680928
1603.84+331455008+329943264+328258656+327346080+327552384+328012896+328206464
1599.34+328318304+328102336+327334432+326745856+326728192+326357696+325168224
1594.84+324173344+324075328+324425280+325042464+326150496+327206176+327558752
1590.34+327643936+328000640+328414560+329040096+330481376+332310656+333636032
1585.84+334770432+336168416+337036160+337103744+337606912+338915520+340101056
1581.34+341432032+343645408+345484480+345923424+345522624+340462976+321695040
1576.84+289285376+263643664+268485344+300611520+334738496+354130784+360893952
1572.34+363247616+362654528+354781760+339447200+325783008+324903072+337671808
1567.84+354393984+365925536+369833056+367981024+363861344+361637792+363650464
1563.34+368461088+371462432+365177312+341505472+300120128+254499232+222520976
1558.84+210993696+218473632+245752384+287721632+324575104+337348192+327512512
1554.34+315007616+317248416+333145472+349497824+356067360+352090176+344089984
1549.84+339684480+341641216+347065280+351422048+351380480+344650336+331398560
1545.34+317436768+310892256+311144192+306824960+290641440+270038912+255501616
1540.84+243344544+224007552+204749888+207783248+240471376+283390336+314315616
1536.35+327052576+326147104+315819168+299326336+284500736+281268512+291017024
1531.85+304689600+313927968+317981440+318571296+315152224+308578336+302980640
1527.35+299526528+294057824+285147872+278808672+280492608+286173152+285536672
1522.85+271688896+247092992+223795296+217115792+233230720+261687168+283530528
1518.35+287197664+277223904+268568320+270927520+280953344+291100288+298160192
1513.85+300709088+297150368+290305024+286787424+288135552+288928896+285151040
1509.35+276920128+262659312+238617696+206767152+179010896+170673232+188594064
1504.85+224722784+262044768+287293920+298060064+300123264+300320384+300816288
1500.35+298366080+290230272+280748224+276867872+276137856+269123360+256932688
1495.85+254670816+270484544+292969344+307763776+312887776+312542272+307207168
1491.35+296422656+285175136+280979968+285865664+294534880+300539776+303026976
1486.85+306781760+315271360+325785856+333637248+338155520+341508160+344252992
1482.35+345540384+346174880+348295584+352601024+358023296+363440768+367583456
1477.85+368093760+363906784+358938944+359304608+364559488+366249280+358403456
1473.35+345780128+339320704+345921376+364491360+388477696+409681280+422996512
1468.85+429543840+433717504+437275680+437838400+432314688+421337952+411982624
1464.35+413776544+427763744+443714176+452686272+455915360+457594464+456588928
1459.85+450597280+440380416+424327008+398565088+369988864+359437248+379325824
1455.35+416244928+447951776+465319168+471934784+473450176+473054784+472944096
1450.85+474461440+476308992+475109248+469178912+461558016+458088416+461514976
1446.35+468594560+474019808+475688896+475161056+474479264+474163680+473918336
1441.85+473566560+472681600+470755328+468402144+465946816+459342400+441950112
1437.35+415296864+394932544+396518304+415895072+434356992+440855744+438804128
1432.85+435356448+432424256+428195232+421465216+413309408+407160000+406031360
1428.35+408251904+409060928+406891104+403841248+400336000+394715968+387903840
1423.85+383108000+381293216+381117248+380701984+375298944+358563008+332665600
1419.35+312827648+312821792+328301088+344185344+352727520+356285280+358486976
1414.85+359840480+360000064+359220704+357723264+355888256+354472064+353737152
1410.35+353335296+353209952+353544480+354070560+354248512+353539680+351048928
1405.85+346336448+341384960+339896576+343059392+347592384+349694816+349030272
1401.35+346822016+342231904+334141920+325426304+321342464+323250304+327159776
1396.85+328279424+324126144+314976288+304929408+300740736+305393408+314181024
1392.35+320189600+321281376+319733664+317772448+315254112+310053728+300486336
1387.85+289186432+283114592+286333376+294668928+301046400+303135296+302793536
1383.35+301494848+299684928+298169664+297277056+296224576+294616416+292995072
1378.85+291693888+290726016+290293632+289973184+288339456+284623136+279874112
1374.35+276058560+274900384+277113888+281487872+285434720+287393088+287647584
1369.85+286637792+284508352+282559072+282533280+284060672+285187584+285186400
1365.35+284336352+281777664+276675776+270979328+267996368+268431600+270389824
1360.85+272698720+275646368+278917600+281232160+282054080+282056192+281874464
1356.35+281517280+280985088+280623712+280711584+281114400+281431904+281351744
1351.86+280891744+280332448+279935680+279760864+279728992+279750624+279799648
1347.36+279900384+280042336+280133632+280119776+280103424+280205792+280355040
1342.86+280224608+279292576+277116864+273904128+270795424+269166240+269508832
1338.36+271157632+272994848+274245056+274847680+275333056+276179552+277222560
1333.86+277903424+277989216+277725760+277393248+277089984+276856480+276739744
1329.36+276779328+276997120+277236928+277146208+276578176+275885504+275529696
1324.86+275590304+275829632+275978272+275859616+275490944+275016704+274344896
1320.36+273159488+271582592+270365184+270008992+270199712+270445248+270735040
1315.86+271196288+271637536+271781216+271622912+271383360+271347328+271705664
1311.36+272311456+272703328+272569504+272050112+271507424+271201056+271188096
1306.86+271289888+271158944+270659232+270140512+270073120+270478176+270952832
1302.36+271175872+271150912+271000864+270787040+270574688+270492800+270604288
1297.86+270780288+270820256+270717472+270703168+270974528+271442560+271826112
1293.36+271926144+271791232+271712768+272065216+272908800+273753280+274043808
1288.86+273869536+273797920+274065856+274426592+274658848+274674016+274307168
1284.36+273671616+273443200+274082976+275100384+275739136+275976800+276195072
1279.86+276378688+276324608+276185184+276246816+276544864+276998816+277598432
1275.36+278290272+278945664+279418688+279510112+279171104+278828000+279091232
1270.86+280041344+281162112+281954784+282285568+282315136+282410848+282917408
1266.36+283761728+284526688+284982752+285296416+285743360+286450720+287308928
1261.86+288008992+288464832+289180096+290699808+292735840+294417984+295395104
1257.36+296139136+297150560+298382720+299527168+300490816+301451360+302618720
1252.86+304029024+305528672+306893888+307969664+308772416+309487712+310310592
1248.36+311312224+312497760+313846240+315181216+316247008+317097952+318140896
1243.86+319664928+321559200+323533120+325343392+326867808+328232896+329701664
1239.36+331234720+332533216+333688704+335259456+337420320+339587936+341165472
1234.86+342235584+343318400+344783200+346596480+348425760+349940384+351087552
1230.36+352081024+353195200+354631680+356388448+358130112+359397152+360050016
1225.86+360374720+360810528+361739168+363316096+365272832+367065408+368397792
1221.36+369423552+370416800+371494080+372586816+373445024+373801504+373727744
1216.86+373639968+373839040+374252000+374629472+374764896+374613408+374409088
1212.36+374489920+374872416+375257792+375489248+375697056+375981312+376256576
1207.86+376375488+376193248+375615232+374734176+373740928+372717472+371747360
1203.36+371092768+370934496+371074272+371175520+371120288+370930912+370622784
1198.86+370294656+370016800+369562944+368670208+367557312+366736256+366335168
1194.36+366083456+365890496+365905888+366023840+365881824+365426624+365034432
1189.86+364990176+365215552+365560960+366029504+366624608+367211776+367608128
1185.36+367733120+367724928+367923168+368555040+369450336+370326720+371289088
1180.86+372675168+374440672+376109152+377388320+378501728+379817408+381392320
1176.36+382994176+384484800+385995264+387598112+389048864+390184640+391362816
1171.86+392963776+394721888+396187296+397566560+399363616+401482336+403454944
1167.37+405177312+406763168+408156992+409512032+411376256+413925056+416575776
1162.87+418758464+420539040+422253728+424101248+426214752+428622816+431054144
1158.37+433155008+434867392+436407040+437995008+439782816+441894784+444406944
1153.87+447277056+450281344+453134240+455838272+458789120+462352704+466437056
1149.37+470603264+474408896+477688128+480793024+484456768+489017280+493958752
1144.87+498632160+503150016+508058816+513431008+518831712+524014496+529184736
1140.37+534615328+540301312+546087296+551972800+558126400+564528512+570854848
1135.87+576934976+583082688+589647232+596486528+603262592+609964096+616765120
1131.37+623655104+630628224+637965888+645882624+654103488+662171072+670021568
1126.87+677853120+685545856+692700032+699329984+706059904+713411200+721221376
1122.37+729009664+736614144+744244416+752112128+760169728+768054592+775329152
1117.87+782059072+789004992+796843584+805320448+813513856+820825600+827377664
1113.37+833589888+839690368+845669888+851651264+858187328+865769280+873894592
1108.87+881206656+887013696+892141312+897825600+904258624+910680832+916462784
1104.37+921622720+926582336+931776256+937359232+943127424+948756544+954054848
1099.87+958968640+963560448+968048192+972665280+977428864+982228480+987031360
1095.37+991811840+996412352+1000729088+1004901760+1009142208+1013455872
1091.51+1017695936+1021803968+1025891520+1030022144+1033941696+1037254080
1087.66+1040008576+1042778176+1045886784+1049022592+1051970304+1055142144
1083.80+1058760640+1062181312+1064739136+1066662592+1068442688+1069953536
1079.94+1070957824+1071808512+1072824192+1073612160+1073741824+1073499264
1076.08+1073314112+1073088640+1072664320+1072199808+1071480192+1069590400
1072.23+1066029632+1061567488+1057431680+1054067008+1051016000+1047461952
1068.37+1042626176+1036252864+1029044800+1022149376+1016010368+1010060672
1064.51+1003576576+996441472+989016320+981578432+973974848+965784832+956853696
1060.01+947494016+937996736+928285184+918366784+908614080+899086336+889123072
1055.51+878256960+867016512+856171968+845691200+835085824+824316352+813688576
1051.01+803198016+792483200+781231360+769419456+757439040+745986368+735451456
1046.51+725449280+715364224+705225920+695545856+686356288+676949504+666691264
1042.01+655810944+645251200+635801088+627414912+619380544+611094592+602517504
1037.52+593932288+585560448+577476928+569593856+561676672+553660352+545927680
1033.02+538971392+532829664+527183584+521829408+516677408+511490400+506091136
1028.52+500736736+495910272+491798208+488152544+484514368+480547936+476405696
1024.02+472770624+470255328+468777216+467692256+466354080+464436736+462052352
1019.52+459796832+458334336+457801312+457881152+458293664+458815936+459140576
1015.02+459307040+459977216+461707584+464252096+467029024+469800608+472492928
1010.52+475021920+477794720+481729280+487199840+493417280+499362720+504962432
1006.02+510949472+517798368+525164896+532351360+539113600+545826752+552922816
1001.52+560421440+568150272+576106368+584290304+592392000+600030656+607249216
997.02+614473664+622004608+629837184+637908032+646096448+653910720+660737920
992.52+666673472+672592192+678997952+685298048+690607168+694709376+697839744
988.02+700158080+701939264+703647296+705299840+706269440+706090048+704966336
983.52+703288704+701171200+698584256+695453952+691594176+686960384+681885888
979.02+676649344+670975104+664442304+657244480+650033344+643007360+635649280
974.52+627519744+618856768+610131840+601434624+592683840+584070528+575783808
970.02+567619200+559353600+551230592+543586880+536267776+528887552+521423520
965.52+514249568+507756928+502081504+496975968+491938016+486725408+481643744
961.02+477134912+473256800+469762400+466441888+463199872+460029088+457034688
956.52+454355968+452056672+450113696+448397248+446675104+444841216+443094176
952.02+441656992+440460416+439295520+438175392+437369120+437163424+437567936
947.52+438115744+438115744+437356608+436382240+435827808+435769600+435922816
943.02+436085792+436134496+435950016+435651296+435610848+436000160+436523648
938.52+436779616+436700096+436499936+436357152+436308960+436393888+436689696
934.02+437157120+437620416+437985888+438410880+439053408+439696288+439808320
929.52+439159968+438234912+437762176+437873216+438109760+438233312+438487648
925.02+438931616+439118912+438705760+437840128+436787328+435710016+434895904
920.52+434569856+434445088+434023744+433316992+432683680+432140352+431450656
916.02+430704096+430154720+429626016+428625984+427040000+425356448+424193632
911.52+423769248+423751936+423530336+422675392+421208608+419481536+417886176
907.02+416654272+415772960+415022752+414167520+413135968+412004512+410857152
902.52+409718496+408572000+407372896+406103808+404868032+403878240+403284544
898.02+403063808+403094976+403219136+403165856+402620128+401529632+400219040
893.52+399046624+398066464+397135840+396188320+395266336+394426560+393722560
889.02+393167488+392676192+392095008+391300704+390275296+389187296+388323648
884.52+387803168+387457920+387146016+386965536+386988960+387064992+387082720
880.02+387082400+386942912+386383072+385441824+384544544+383948736+383494752
875.52+383015360+382649280+382631168+382923264+383143584+382900704+382221984
871.02+381440256+380621824+379540160+378381792+377834496+378106752+378477184
866.52+378279584+377738976+377344352+376897376+375803136+374131232+372871744
862.02+372912352+373827200+374081728+372784672+370834656+369718528+369639456
857.52+369714944+369538272+369337504+368819008+367147680+364199072+360939328
853.03+358582048+357778976+358204224+358607264+357861440+356152832+354331680
848.53+352428640+350104960+347989280+346902912+346267456+344854592+342528000
844.03+339804224+336760480+333820960+332354976+332937664+333977728+333513888
839.53+331675008+330153632+329607232+328671840+325952864+322193408+319384928
835.03+318086752+317086528+315527392+313819648+312466144+311317376+310014912
830.53+308229280+305969440+304221248+304085536+304843520+304416160+302281184
826.03+300264160+300038560+301299488+302751200+303622272+303882176+303592320
821.53+302357152+299725536+296422656+294299072+294322656+295595616+296933600
817.03+298020832+298543200+297908384+296419840+295071008+294070240+292978624
812.53+291951840+291402784+291178912+291328480+292569248+294829536+296644352
808.03+296900352+296090624+295294432+295015072+295315008+296377120+298656352
803.53+302405664+306517568+308498656+306921952+303649280+302177408
##END=
