##TITLE=octarelline 6 front
##JCAMP-DX=4.24
##DATA TYPE=INFRARED SPECTRUM
##DATE=31/1/2005
##TIME=16:46:45
##SAMPLING PROCEDURE=film
##ORIGIN=Vincent
##DATA PROCESSING=no operation
##XUNITS=1/CM
##YUNITS=ABSORBANCE
##RESOLUTION=2
##FIRSTX=4000.283
##LASTX=800.31372
##DELTAX=-0.64282227
##MAXY=0.14956592
##MINY=0.0066693439
##XFACTOR=1
##YFACTOR=1.3929412e-010
##NPOINTS=4979
##FIRSTY=0.0074422248
##XYDATA=(X++(Y..Y))
4000.28+53428134+53639124+52833256+51373848+50016916+49233696+49169508+49864148
3995.14+50961648+51562776+51163780+50440888+50306612+50580096+50534572+50270728
3990.00+50441268+51026816+51331724+50961832+50150808+49431368+49282028+49679664
3984.86+50063372+50138720+50325120+50933880+51561264+51819744+51898344+51891736
3979.71+51491368+50675476+49896060+49410792+49236344+49636052+50810912+52242080
3974.57+53074260+53064052+52721740+52640652+52903756+53082388+52917748+52847808
3969.43+53355916+54032204+54089500+53585044+53129264+52715312+51944456+51108044
3964.28+50953336+51561832+52328444+52852724+53227752+53610948+53911756+53825164
3959.14+53164612+52202776+51494956+51286948+51355904+51361572+51124104+50738944
3954.00+50578956+50886848+51387448+51735092+52075784+52620248+53130020+53479936
3948.86+54012160+54687076+54772564+53981528+52978792+52274960+51732260+51471340
3943.71+52105076+53668424+55224052+55835280+55282880+53796612+51786872+49956112
3938.57+49142884+49649832+50866444+51841284+52192000+52186904+52162140+52507988
3933.43+53895120+56475012+59036392+60055100+59389244+57905572+56153140+54469780
3928.29+53394864+52938352+52548804+52476796+53651596+55700008+56820572+56062320
3923.14+54180072+52258896+51087644+51408428+53160648+55086916+56397616+57937184
3918.00+60492376+63019136+63665660+61809716+58405412+54910440+52392128+51154708
3912.86+50811100+50719112+50396700+49750664+49139304+48993556+49291472+49706660
3907.72+50187636+51108800+53119432+56996768+62827232+69089072+73659656+75973744
3902.57+76850184+76457832+74689240+73118552+73711976+75450888+74855600+70355872
3897.43+63975216+58333464+54335892+52009460+51381220+51960516+53155920+55703788
3892.29+60888408+67591840+71927264+71209824+66776668+61571260+57399740+55912656
3887.15+59311400+67537904+76176928+79802976+77253832+71503968+65461784+60624260
3882.00+58583412+60703844+65845540+70071728+69958064+65763744+60453724+56366960
3876.86+54049980+53633828+55609196+59726032+64058108+66027948+64680184+62093676
3871.72+62383364+68389944+78474592+86818192+88135424+82248888+73353896+66177716
3866.58+63667560+66195944+71163616+74284976+73242592+69957112+67840824+67515312
3861.43+66672248+63663948+59378268+55558500+53360264+53429836+55271524+57449336
3856.29+61225176+72255144+94307368+121417632+140583008+145052560+138728528
3851.79+126349520+109400896+90883288+75420424+64740144+57622164+53224732
3847.29+51465856+51361196+51746624+52923044+55650244+59149832+61587372+62442520
3842.15+63322000+65762984+68860504+70784144+72974728+79692592+91281680
3837.65+100666776+100695952+93348840+85941240+81356632+77109240+71550168
3833.15+66769260+65262336+66482584+67425872+65810628+62083068+58331384+56092216
3828.01+55671440+56657628+58050404+58514480+57564432+56075184+55272092+56407456
3822.86+61491648+71906536+85037792+94253728+94526880+86847432+76063816+67368712
3817.72+65388728+72514192+85467904+95335360+94813848+85175872+73099144+63205176
3812.58+56189276+51439596+48769108+47879580+47970168+49021688+52860660+61456024
3807.44+73324976+82513360+83430200+76796656+68267432+62464712+61378876+66536888
3802.29+78368440+92568632+100608624+97415752+86473112+74870256+66990080
3797.79+63842056+64476232+66382544+66531192+63696952+59147184+54786176+51686720
3792.65+50206708+50163836+50732716+50986020+50658292+50075832+49642844+49616404
3787.51+50055064+50892700+52198992+53976048+55528416+55854572+54991388+54003652
3782.37+53450064+53178412+53703592+56048132+59759188+62552300+62588704+60156072
3777.22+56879436+54236796+52835528+52329768+52044228+51799336+51746624+51863396
3772.08+52578664+55343220+61036036+67862856+72128096+71582872+67424160+62979888
3766.94+61063896+62190560+64426708+65104636+63145816+59637572+56342928+54304872
3761.80+54016704+56128356+60778312+66071992+68791168+67844248+65616848+64654568
3756.65+64743180+64226944+62543772+60913428+62452764+71103920+86920232
3752.15+102442872+109287928+109432080+111606088+117245960+118341976+109421888
3747.65+94847560+83008576+80742088+92148648+114697256+135287376+138423904
3743.15+123020768+101537136+84059584+72649440+65938744+62588136+61742236
3738.65+63573100+69118704+78081080+87758280+95073632+98433832+97491496+93574608
3733.51+90254248+90378784+92124344+90546944+83783912+74964488+67624504+62795188
3728.37+60789116+62262408+66375708+70236128+71507392+70301320+68062088+66173732
3723.23+65655932+66409312+66720656+65111852+62455612+60775468+60583896+60740416
3718.08+60245884+59102676+57974860+57591116+57875464+58061376+58971816+63902380
3712.94+74472256+86206400+91845272+89952976+85921184+83753560+81845184+77355744
3707.80+70814944+64871056+61057832+59162908+58277788+57747676+57883600+59799344
3702.66+63806396+68093808+69873120+68131992+64571844+61495252+59591924+58343684
3697.51+57690504+57991144+58678280+58540040+57460128+56575496+56926744+59272760
3692.37+64256916+70912856+76360888+79710704+84615768+94198952+104647936
3687.87+107730312+100436848+87900296+76295384+67817080+62081548+58523760
3683.37+56816980+56551460+57288640+58736984+60886136+63796340+66875588+68914088
3678.23+70087872+73618368+83556376+99880320+116172144+123648344+118655080
3673.73+105239328+91269240+83941408+86694184+97008720+107429648+111482800
3669.23+108660552+101980672+93498960+84489752+76851328+71826664+68917312
3664.73+67254008+66657056+66924192+67528984+68327832+69429952+70553560+71367256
3659.59+71884472+72326840+73666704+77854528+85530360+93670928+97691472+96172792
3654.44+91535040+86863664+84448688+86056248+92280912+101982968+113265856
3649.94+124165616+132231368+135364800+133663552+128829712+122008144+113823216
3645.45+105711840+99410632+95486920+93443624+92775016+93149512+93997272
3640.95+94700440+95109272+95596720+96642960+98312816+100088152+101382776
3636.45+102305176+103624552+105910824+108881672+111639984+113400552+114108304
3631.95+114842056+117890704+125886248+139605888+155701984+167372496+169265104
3627.45+161984400+150649360+140072144+132376400+127721888+125594280+125236936
3622.95+125784856+126887352+129428240+134810752+142765424+150462720+154856208
3618.45+155520704+154015184+151503536+148664912+146696144+146499216+147800592
3613.95+150301440+154145808+158085792+159547920+158454352+158498336+162450912
3609.45+168428192+172495120+173144512+171449616+168566688+165231392+162384528
3604.95+160687264+159957728+159727488+159943248+161025984+163417808+166735280
3600.45+169573744+170889696+171283344+172020240+173385952+175034160+177089936
3595.95+179694512+182218336+184009584+185243472+186274480+186838736+186523856
3591.45+185602224+185294544+187253728+192246672+199084384+205531760+210284864
3586.95+213049872+213300608+210773584+206860576+203655280+201887824+201045488
3582.45+200845504+201372352+202384112+203508896+204682272+205843792+206853024
3577.95+207968480+209646384+211740464+213608448+215056432+216448480+217880240
3573.45+218953392+219506864+219947344+220650576+221608960+223190624+226622912
3568.95+232756256+240452768+247072272+250690448+251265904+249813520+247476832
3564.45+245316016+243943168+243225600+242803488+242766928+243491616+245025312
3559.95+246898864+248434464+249195264+249336992+249483328+250209168+251706480
3555.45+253725200+255618720+256792080+257461520+258567328+260601808+263009040
3550.95+264918672+265959792+266321280+266664176+267904320+270456576+273778816
3546.45+277018656+279716864+281656160+282723392+283231936+283728096+284303584
3541.95+284731968+285193760+286121472+287387296+288349504+288748640+289100352
3537.45+290155488+292153920+294580480+296661472+298146304+299377952+300569792
3532.95+301559648+302412160+303663936+305624096+307943840+310226752+312499840
3528.45+314776800+316710016+318101728+319223136+320239904+320937248+321466272
3523.95+322580448+324471104+326018976+326072960+325019904+324352320+325043808
3519.45+326858176+328830528+330065696+330480352+330905536+332107648+333932128
3514.95+335879136+337883936+339869696+341293536+341992736+342791488+344530688
3510.45+347174528+350254752+353283488+355475104+356179776+355900000+355942720
3505.95+356984864+358816864+361196736+364005184+366712000+368626944+369618304
3501.45+370083200+370429760+370952032+371886912+373316864+375122048+377058880
3496.95+378795296+380049344+380897344+381816192+383280800+385265184+387098304
3492.45+387940448+387719904+387520832+388516096+390636128+392884896+394725280
3487.95+396433504+398279552+400104512+401629504+402570528+402782176+402733376
3483.45+403420224+405338560+407951296+410376064+412164160+413343904+414270816
3478.95+415393600+416706240+417672000+418078944+418527136+419618912+421242816
3474.45+422986080+424651360+426018816+426834912+427379872+428416288+430265408
3469.95+432327296+433720928+434210304+434449984+435339456+437066720+438935264
3465.45+440302368+441332224+442527712+443958336+445344352+446536256+447634048
3460.96+448922752+450738560+453060480+455282976+456759872+457350112+457300384
3456.46+457133856+457738560+459716480+462416576+464461952+465436288+466147968
3451.96+467178400+468178752+468784064+469288672+470138656+471451136+473218656
3447.46+475457888+478006432+480447616+482378336+483704160+484697568+485739648
3442.96+486939424+488088352+489019648+489771584+490385888+490887008+491546368
3438.46+492702560+494190976+495376288+495958176+496353664+497124896+498413536
3433.96+500074240+501904544+503576000+504746112+505506976+506314112+507298880
3429.46+508119648+508717344+509659488+511345856+513212800+514246176+514195328
3424.96+513992000+514859040+517094432+519871904+522201856+523833664+525103424
3420.46+526310432+527624416+529164448+530724320+531691712+531708224+531208448
3415.96+530983680+531551744+533066368+535301344+537541312+539039168+539846272
3411.46+540666560+541878080+543249472+544616448+546116288+547658368+548796800
3406.96+549394112+549958016+551065344+552706752+554359744+555606272+556483264
3402.46+557254848+558020928+558748608+559561344+560642240+561829248+562625536
3397.96+562764416+562618176+562990592+564449920+566632512+568294656+568568256
3393.46+568117376+568400768+569765632+571199872+572034560+572781568+573998464
3388.96+575377792+576480064+577524416+579012736+581081152+583384640+585251392
3384.46+586081280+586030400+586001216+586620672+587646208+588582016+589329088
3379.96+590113600+591306432+593255168+595647808+597394816+597960960+598385856
3375.46+599998144+602489984+604340800+604888832+604962368+605548864+606770176
3370.96+608262144+609761664+611023936+611708352+611804224+611936064+612811584
3366.46+614406720+616065344+617333120+618292032+619084992+619664128+620143168
3361.96+620929344+622264256+623848384+625106432+625705984+625801856+625877312
3357.46+626369600+627427328+628942144+630657216+632270848+633645824+634946752
3352.96+636369728+637777216+638954944+640107776+641624384+643339200+644593984
3348.46+645167104+645641280+646628672+647981504+649041088+649437504+649412032
3343.96+649513024+650204352+651606592+653419712+655117376+656366144+657226624
3339.46+658025152+659169472+660888704+662904320+664572224+665653056+666521728
3334.96+667380672+667944064+668324864+669296128+671077504+672802304+673805376
3330.46+674454080+675193664+675829184+676318592+677263616+679051776+681326400
3325.96+683545536+685347008+686393920+686662080+686869440+687914240+689863168
3321.46+691945472+693445376+694317568+695041152+696039936+697323584+698643776
3316.96+699843008+700870400+701722560+702662336+704150336+706225024+708360256
3312.46+710192448+711854720+713337152+714319808+714853440+715481920+716498560
3307.96+717781056+719356096+721241344+722879104+723628096+723758912+724105664
3303.46+724931584+725932032+727098688+728682240+730464896+731875008+732768704
3298.96+733473728+734141312+734661120+735197184+736216192+737794816+739255168
3294.46+739789504+739467200+739397504+740651712+743040832+745231232+746101568
3289.96+745749504+745152704+745188736+745974272+746855936+747093248+746730560
3285.46+746519488+746793600+747028032+746903808+746941184+747441600+747665728
3280.96+746984832+746142592+746386688+747709184+748799488+748569856+747121344
3276.47+745300608+743784576+742784512+742316992+742290496+742239808+741626304
3271.97+740736576+740551296+741243264+741665664+740985664+739821312+739002496
3267.47+738190592+736750528+735068544+733932736+733302080+732628608+731846144
3262.97+731215936+730596160+729583680+728190400+726896192+726055104+725499520
3258.47+724806784+723830912+722813504+721946880+721086784+720063296+718918208
3253.97+717628992+716035584+714366592+713360768+713351808+713679872+713509504
3249.47+712884224+712441152+712322688+711992768+711050240+709798976+708874624
3244.97+708565120+708617280+708631296+708455104+708126528+707603072+706814976
3240.47+705868096+704940352+704055296+703167552+702363328+701748224+701259712
3235.97+700809216+700347392+699652544+698416832+696826432+695640640+695415872
3231.47+695992832+696919872+697923264+698678656+698673024+697820480+696835520
3226.97+696432896+696386368+695990016+695240192+694811456+694859712+694618688
3222.47+693440192+691618368+689941696+688970624+688875136+689415744+689999232
3217.97+690232192+690384896+690818752+691181760+690812032+689725632+688615552
3213.47+688036224+688066240+688354816+688184832+687036864+685497920+684914304
3208.97+685673664+686533760+686181696+684800640+683490496+682732160+682189888
3204.47+681689664+681537088+681823296+682003520+681442048+680084032+678421888
3199.97+677080128+676533312+676872896+677518592+677352960+675620544+672806016
3195.47+670383680+669511168+670026560+670734400+670588480+669450368+667902592
3190.97+666634560+666105728+666411776+667116672+667326592+666376768+664604160
3186.47+663145920+662743424+662917888+662548288+661111040+659047808+657135104
3181.97+655796608+655006784+654598976+654509312+654637504+654534976+653611712
3177.47+651915072+650270912+649321728+648879552+648485312+648029760+647508480
3172.97+646838080+646140288+645553664+644737472+643316608+641663040+640445888
3168.47+639685824+638964928+638135936+637264192+636399104+635795648+635634560
3163.97+635435456+634632576+633582912+632962880+632524224+631623808+630545792
3159.47+629985472+629709632+628868416+627303488+625689664+624654592+624340096
3154.97+624444288+624335808+623483776+621950976+620251968+618791936+617674624
3150.47+616867264+616334336+616032448+615883712+615769344+615573312+615191168
3145.97+614470464+613304064+611892416+610676032+609855680+609225664+608523264
3141.47+607635136+606455040+604868288+603027776+601420608+600563456+600513664
3136.97+600637440+600076544+598680960+597218880+596482304+596507904+596811072
3132.47+596896704+596412544+595277312+593886336+592767872+591916352+590854016
3127.97+589417216+588166336+587805056+588319616+588916672+588827264+587989504
3123.47+586799488+585596672+584607936+584014464+583716992+583407360+582983168
3118.97+582427584+581395264+579681856+577956288+577080000+576894208+576601920
3114.47+576027840+575530240+575043712+574145664+572777792+571165952+569425664
3109.97+567788544+566806784+566792896+567292032+567411712+566564480+564878528
3105.47+562984128+561477824+560586368+560221120+560031424+559494144+558448320
3100.97+557543296+557519104+558020928+557813312+556297024+554231872+552867840
3096.47+552778432+553509632+554036096+553609088+552344512+550887872+549593280
3091.98+548312192+546950976+545757888+544934592+544310720+543668032+543153664
3087.48+543048128+543164352+542942016+542224320+541499904+541176256+541046528
3082.98+540693120+539971520+538959168+537837376+536850464+536050944+535176512
3078.48+534140288+533332736+533085824+533195168+533208352+532813664+531873504
3073.98+530553152+529388608+528672256+527960768+526765952+525443488+524763072
3069.48+524787744+524787744+524179680+523177312+522487488+522459968+522612736
3064.98+522141152+520885568+519452544+518460672+518016992+517876064+517586080
3060.48+516672608+515148864+513687168+512820736+512329664+511804896+511318048
3055.98+510996608+510471904+509390336+508118592+507265888+506732384+505813984
3051.48+504224320+502582848+501731424+501824224+502186816+501944032+500669824
3046.98+498575328+496279584+494411392+493231072+492576768+492203136+492012032
3042.48+491876224+491516768+490805440+489926784+488998144+487825312+486314304
3037.98+484728672+483202816+481484992+479609216+478325024+478211072+478790688
3033.48+479127584+478878880+478187232+477044064+475486272+474029632+473153728
3028.98+472587168+471664128+470205184+468550016+466993184+465612160+464465120
3024.48+463575136+462836896+462108544+461271936+460197632+458966688+458057120
3019.98+457859904+457972096+457472384+456082880+454524768+453513152+452919744
3015.48+452239712+451367328+450441984+449344512+447869824+446177504+444642816
3010.98+443432128+442552160+442058496+441814592+441288800+440025184+438245024
3006.48+436667136+435790144+435529440+435397792+434877920+433831648+432673152
3001.98+431922144+431555488+431173504+430736032+430562400+430574080+430258336
2997.48+429527968+428869984+428457696+427917632+427131808+426470720+426034016
2992.98+425438112+424626880+424063904+423913376+423733248+423221120+422677504
2988.48+422531296+422836096+423370720+423889728+424212704+424300480+424239136
2983.98+424053248+423649152+423052064+422565792+422529568+422966752+423565280
2979.48+424013216+424256800+424368576+424339200+424230240+424360928+425033024
2974.98+426090848+427020096+427480640+427618176+427894016+428654304+429773856
2970.48+430800672+431577216+432422720+433452128+434128320+434023680+433665472
2965.98+434043936+435387968+436854208+437373152+436645152+435388128+434650848
2961.48+434820672+435409504+435855328+436126080+436407840+436642816+436706656
2956.98+436668416+436535424+435990400+434680096+432756640+430875616+429606848
2952.48+428903552+428245504+427243008+425932096+424625824+423766688+423751776
2947.98+424473824+425156544+425062176+424264896+423394784+422869664+422713472
2943.48+422884160+423308576+423724320+423822848+423563808+423201056+423070400
2938.98+423350304+423932512+424541056+424982496+425194240+425170144+425004896
2934.48+424906080+424907360+424640736+423714752+422291456+421010496+420282720
2929.98+419892992+419422720+418830880+418367488+418056576+417680512+417225216
2925.48+416876192+416578976+416029792+415087040+413797568+412149536+410259008
2920.98+408600128+407516032+406701824+405616064+404208384+402806720+401598176
2916.48+400568992+399685824+398818112+397629472+395833376+393617536+391674560
2911.98+390595680+390152768+389502272+388246048+386860960+385828768+384940544
2907.49+383848224+382722880+381797472+380769504+379246080+377465152+376032448
2902.99+375131264+374445728+373759136+373161280+372581920+371637152+370299200
2898.49+369296736+369262624+369711200+369549664+368445984+367066336+366049856
2893.99+365333152+364483264+363278240+361891712+360689344+359850144+359293536
2889.49+359049760+359320864+359974240+360426304+360313664+359880832+359512704
2884.99+359338560+359369440+359531712+359599264+359503136+359527328+359869376
2880.49+360330528+360736736+361199072+361728096+362092096+362233792+362352992
2875.99+362467392+362336064+361905920+361526944+361598720+362087264+362438144
2871.49+362076640+361049696+359938400+359136672+358543744+357932704+357182400
2866.99+356204992+355104768+354265216+353865120+353522048+352822304+351877280
2862.49+351027520+350366016+349904192+349760736+349827488+349606496+348777376
2857.99+347676448+346932352+346747456+346757440+346560992+346125920+345608064
2853.49+345006432+344212736+343290624+342509600+342068064+341877248+341599968
2848.99+340919104+339846496+338706464+337802720+337239456+337008384+336940896
2844.49+336585408+335533312+333941408+332389440+331224256+330343936+329558752
2839.99+328843520+328235840+327707744+327147936+326466656+325758176+325217920
2835.49+324793632+324169408+323258976+322412256+321957088+321781504+321528928
2830.99+320977248+320119008+319030208+317764032+316390176+315147872+314345696
2826.49+313993216+313739616+313366816+313037440+312939840+313015232+313127424
2821.99+313093152+312592832+311561536+310544128+310115264+310066624+309731008
2817.49+308917312+308028960+307387200+306897440+306330528+305614240+304870080
2812.99+304273792+303854848+303470752+303041024+302604992+302070784+301150400
2808.49+299812288+298545888+297874752+297777248+297842016+297793408+297568256
2803.99+297091168+296381504+295716960+295207008+294511456+293505088+292822976
2799.49+292999168+293458528+293208416+292162080+290953056+289877664+288877696
2794.99+288089216+287584544+287043328+286330080+285850752+285831168+285854656
2790.49+285550336+285114528+284777792+284407616+283905440+283450496+283102880
2785.99+282598080+281755616+280825696+280190752+279859552+279495520+278971104
2781.49+278576672+278489088+278386464+277923456+277213856+276499584+275721696
2776.99+274839104+274123360+273733760+273358048+272643808+271681408+270860992
2772.49+270457216+270388480+270295680+269902912+269325216+268778048+268103376
2767.99+267059360+265936736+265330624+265356512+265563952+265518032+265068400
2763.49+264238800+263218272+262312144+261696224+261312048+261006512+260614752
2758.99+260056160+259503936+259193504+258970784+258417744+257549904+256844768
2754.49+256440768+255876304+254815776+253591920+252831424+252851216+253457680
2749.99+254062048+254031392+253179888+251942000+250941232+250447584+250220256
2745.49+249795968+248920080+247796736+246878352+246414528+246338496+246481504
2740.99+246648032+246536624+245920624+244909728+243849904+243038736+242647632
2736.49+242657264+242677744+242214960+241327728+240655952+240524688+240474480
2731.99+239963840+239125200+238432048+237969296+237423152+236582000+235527392
2727.49+234454560+233574544+233083440+233004976+233083440+232949696+232441328
2723.00+231730384+231120512+230745664+230472928+230138384+229779296+229509856
2718.50+229264576+228857584+228259456+227593312+226909872+226243008+225793664
2714.00+225690560+225642976+225275600+224731296+224456112+224469696+224353456
2709.50+223891984+223269840+222726496+222415152+222403568+222436896+222019424
2705.00+221085248+220179472+219699056+219446256+219208176+219119456+219079568
2700.50+218504480+217162096+215744208+215113376+215290384+215524560+215184832
2696.00+214344480+213598704+213438496+213761504+214013488+213785760+213140208
2691.50+212320672+211425616+210518464+209813328+209515600+209538672+209582192
2687.00+209455392+209174368+208779504+208275840+207745600+207337040+207076048
2682.50+206780368+206239072+205467824+204754880+204363408+204189568+203832832
2678.00+203076848+202116224+201256208+200638576+200335360+200361728+200502208
2673.50+200485584+200413440+200579136+200807840+200465376+199294160+197870112
2669.00+197002144+196916640+197154960+197156752+196780656+196206256+195515856
2664.50+194712016+194073952+194019360+194467536+194807168+194620640+194029440
2660.00+193290480+192507984+191726880+190984496+190349552+190076192+190349920
2655.50+190751376+190563712+189774976+189102352+188880048+188668976+188106352
2651.00+187453456+187131184+187213056+187449488+187457584+187052448+186563312
2646.50+186485184+186687808+186483008+185618976+184667872+184255392+184360080
2642.00+184467344+184119376+183363408+182787968+182942080+183612368+184027104
2637.50+183798448+183257584+182814768+182480976+182086320+181621792+181236320
2633.00+181065360+181078384+181082512+180970656+180874528+180908000+180943664
2628.50+180862112+180763072+180674256+180404464+179944736+179634672+179663216
2624.00+179783296+179707712+179418512+178947520+178265824+177511088+177001840
2619.50+176938480+177263824+177765088+178157600+178239840+178071424+177837088
2615.00+177548688+177142656+176808288+176858448+177299616+177803040+178016720
2610.50+177751120+177096432+176501072+176476496+177003392+177510704+177582896
2606.00+177388144+177278576+177275024+177165488+176941248+176878672+177170384
2601.50+177592560+177682640+177280544+176744752+176545920+176763040+177109984
2597.00+177318512+177303744+177073216+176681024+176234608+175827200+175484896
2592.50+175276704+175348272+175719248+176112496+176157136+175748336+175153840
2588.00+174798864+174992464+175681504+176372064+176501280+176050576+175600896
2583.50+175642176+176078288+176501664+176615936+176316992+175711392+175166832
2579.00+174982048+174993072+174929584+175015664+175626272+176515840+177063200
2574.50+177164880+177185520+177149136+176758736+176176416+176033264+176537856
2570.00+177152688+177286048+176912320+176419664+176123520+176069248+176164032
2565.50+176357920+176630496+176895808+177097216+177311616+177588992+177769808
2561.00+177718048+177646048+177863264+178312448+178671392+178809744+178841824
2556.50+178853424+178907744+179136656+179548640+179908112+180020336+179979776
2552.00+179933520+179822672+179571264+179371488+179527376+180058352+180640784
2547.50+181010816+181238688+181489824+181687984+181703744+181729360+182099328
2543.00+182758592+183288736+183460992+183448576+183504944+183720576+184023568
2538.51+184223856+184264672+184479968+185251776+186325392+186978256+186963056
2534.01+186750960+186807584+187148944+187644096+188186496+188581136+188700368
2529.51+188686544+188719520+188792560+188971648+189507168+190428576+191346288
2525.01+191866416+191965232+191883408+191901584+192204176+192729600+193188448
2520.51+193383616+193423344+193556224+193922848+194467536+194986432+195314400
2516.01+195517616+195776832+196087712+196300464+196399440+196518576+196725008
2511.51+197050656+197598256+198371520+199153920+199713184+200009584+200106864
2507.01+200077344+200020688+199980672+199918224+199906176+200172688+200802096
2502.51+201608080+202423968+203207168+203833632+204143344+204235600+204392960
2498.01+204696160+205034736+205404928+205895616+206453504+206897504+207121360
2493.51+207172000+207198384+207341808+207578352+207744592+207818304+208023280
2489.01+208559328+209345856+210141552+210758064+211144016+211346256+211413280
2484.51+211334160+211175440+211167872+211434560+211794752+212073616+212377376
2480.01+212766928+212994960+212955744+213036912+213604256+214461344+215175104
2475.51+215598432+215819104+215903744+215949552+216088592+216296912+216396512
2471.01+216296304+216071232+215863312+215801168+215984384+216443312+217119040
2466.51+217849552+218382288+218565056+218529984+218546336+218727344+219046096
2462.01+219498496+220003008+220334832+220379136+220312896+220346208+220476656
2457.51+220621072+220734560+220769472+220754896+220858640+221161056+221492032
2453.01+221685168+221792912+221855392+221762224+221536704+221473696+221771376
2448.51+222275664+222756048+223174240+223513040+223560944+223161664+222601168
2444.01+222460848+222948048+223582288+223783568+223599488+223546560+223827680
2439.51+224108640+224101840+223982448+224078272+224398608+224655824+224653632
2435.01+224471664+224293152+224209072+224234448+224358832+224480064+224447712
2430.51+224291952+224249200+224436736+224705152+224952240+225284400+225698768
2426.01+225945264+225887552+225688336+225505568+225349120+225301376+225512128
2421.51+225888736+226159088+226259584+226335120+226418848+226436048+226458000
2417.01+226604112+226768400+226717856+226420864+226064176+225834976+225779856
2412.51+225777664+225633808+225328976+225121792+225217088+225468000+225623424
2408.01+225704544+225863168+226027584+226007616+225836400+225722736+225730912
2403.51+225731104+225615040+225418256+225245856+225141376+225017520+224770640
2399.01+224456688+224261200+224268384+224378448+224474688+224526608+224497424
2394.51+224352656+224154160+224016384+223982224+224050320+224234448+224471088
2390.01+224573728+224403184+224004384+223518624+223120528+223020128+223308000
2385.51+223783968+224141584+224360848+224718912+225415664+226393872+227555744
2381.01+228908224+230432112+232037888+233783904+235983008+238900704+242409184
2376.51+246123712+249891424+253954800+258582512+263728096+269160960+274714496
2372.01+280282432+285790304+291346400+297178624+303264672+309271936+314950912
2367.51+320278784+325153536+329387488+333074208+336532832+339801312+342614144
2363.01+344794688+346265632+346882496+346707584+346129856+345260928+343589792
2358.51+340672448+336728480+332177728+327119424+321573024+315677760+309377824
2354.02+302367264+294536576+286114752+277325600+268230576+258952192+250016016
2349.52+242651024+238563408+238896672+243266384+250047680+257537968+264662160
2345.02+271007328+276684352+281992992+286930464+291163616+294527584+297209536
2340.52+299439744+301252352+302535200+303189696+303396992+303651392+304156416
2336.02+304372960+303674752+302265344+300881472+299784448+298620320+297093376
2331.52+295238848+293177792+290984288+288698528+286262848+283559168+280581120
2327.02+277490336+274543424+271951488+269653088+267272112+264517744+261520624
2322.52+258550176+255630192+252697808+249822768+247003296+244079392+241086384
2318.02+238330544+235956352+233772848+231575856+229309408+226958064+224611488
2313.52+222537296+220868608+219406192+217961344+216592496+215285600+213773424
2309.02+211954080+210148896+208711776+207670944+206893344+206257536+205561696
2304.52+204593568+203376368+202175312+201212000+200563664+200202208+199912304
2300.02+199349216+198404208+197375696+196565696+195934736+195333216+194839424
2295.52+194594720+194506320+194339184+193955488+193329024+192485456+191576288
2291.02+190858640+190458608+190239520+189984336+189619552+189221232+188890688
2286.52+188659696+188460096+188156112+187683952+187133552+186657824+186273888
2282.02+185882928+185451744+185060864+184734512+184394416+184028080+183765728
2277.52+183727088+183876896+184057680+184119760+184051760+183995968+184028288
2273.02+183927936+183437344+182740080+182311120+182229360+182084928+181643072
2268.52+181125840+180714224+180267632+179729552+179363808+179358096+179486240
2264.02+179343536+178773552+177991536+177385984+177185728+177264032+177341728
2259.52+177278000+177047456+176611216+176071200+175753280+175792192+175817552
2255.02+175415904+174721600+174225168+174134384+174228512+174201984+173893296
2250.52+173333104+172754592+172421680+172377072+172445440+172481568+172439744
2246.02+172233520+171759664+171060688+170367584+169937760+169868880+169987216
2241.52+169981712+169743888+169474464+169307088+169044400+168492160+167808224
2237.02+167288384+167003488+166865264+166805264+166739200+166569040+166373408
2232.52+166350096+166485344+166520032+166313040+166039792+165986672+166251088
2228.02+166614720+166659216+166184448+165519056+165186720+165248448+165229824
2223.52+164747632+163941904+163234304+162877328+162822128+162872064+162875984
2219.02+162800208+162669216+162490448+162275680+162090880+162018656+162017296
2214.52+161856976+161313440+160516464+159968080+159990208+160279328+160300656
2210.02+159966320+159572752+159229312+158838384+158508320+158495792+158756448
2205.52+158939296+158801424+158385920+157859216+157377392+157006640+156691600
2201.02+156395568+156210512+156161488+156038000+155656464+155120656+154657616
2196.52+154381280+154328352+154525600+154876528+155181200+155311696+155243904
2192.02+154979648+154580864+154188368+153888848+153651056+153433584+153224912
2187.52+152998112+152748480+152487920+152181360+151834048+151617664+151662544
2183.02+151772784+151668208+151398592+151222240+151208400+151219696+151146352
2178.52+150909568+150433088+149763840+149102528+148638800+148477040+148631968
2174.02+148923184+149031568+148772704+148200480+147467200+146813392+146556880
2169.53+146773072+147106976+147218992+147197952+147284272+147456496+147554304
2165.03+147523904+147372128+147106592+146788272+146435920+145970064+145411392
2160.53+144948576+144686752+144565280+144571328+144673904+144584160+144006688
2156.03+143145200+142552592+142481008+142699280+142923408+143119312+143362144
2151.53+143571728+143510048+143087808+142576912+142333760+142346592+142315280
2147.03+142129920+141962256+141911296+141849840+141629088+141236880+140792592
2142.53+140462480+140282480+140083792+139740784+139376560+139173488+139132288
2138.03+139184576+139327024+139506560+139567792+139414640+139065648+138590576
2133.53+138143760+137908336+137895712+137983696+138166096+138467232+138651792
2129.03+138419616+137866192+137415584+137332656+137566880+137894336+138021776
2124.53+137757600+137236912+136776304+136483696+136234224+135950992+135673024
2120.03+135436624+135289904+135292224+135406928+135537344+135677680+135858016
2115.53+136036224+136175792+136275376+136233648+135911216+135368496+134792128
2111.03+134296176+134016600+134165032+134630880+134865664+134558320+134104896
2106.53+134053480+134371840+134605456+134513296+134226160+133966376+133776648
2102.03+133508768+133041736+132530752+132306600+132503608+132914112+133194168
2097.53+133099144+132621096+132078576+131895568+132099520+132244936+132028176
2093.03+131679424+131536152+131528984+131386520+131093056+130819992+130601192
2088.53+130378536+130274488+130503912+131025424+131514248+131687168+131520272
2084.03+131198112+130971936+130968832+130993248+130680656+129985992+129345136
2079.53+129146584+129252536+129224064+128889952+128509968+128461360+128833784
2075.03+129266864+129269968+128777816+128265192+128154624+128330648+128443168
2070.53+128447808+128553936+128789824+128946904+128937408+128957344+129179520
2066.03+129440440+129402088+128955592+128268488+127505640+126766968+126241728
2061.53+126073184+126096992+126095032+126247720+126886792+127838832+128503576
2057.03+128575832+128290376+127953840+127670192+127477384+127421232+127404008
2052.53+127234424+126840328+126351456+125973528+125827432+125913728+126144968
2048.03+126414736+126637688+126787680+126908056+126994584+126880592+126389952
2043.53+125640144+125038856+124915840+125247600+125730504+126007568+125939856
2039.03+125705736+125557336+125457496+125179304+124753168+124475800+124425120
2034.53+124339848+124076648+123856976+123926184+124247392+124630744+124944656
2030.03+125097480+125036936+124875224+124841568+125022616+125260944+125365032
2025.53+125259976+124936928+124470976+124103728+124074720+124280480+124374656
2021.03+124262104+124212992+124378720+124576960+124693408+124919328+125337752
2016.53+125583648+125271776+124536728+123861208+123495216+123374752+123468712
2012.03+123818096+124212016+124248560+123877656+123544712+123616032+123971840
2007.53+124309296+124523392+124587592+124415080+124073936+123853096+123905496
2003.03+124106816+124369832+124790112+125330008+125653488+125474336+124909272
1998.53+124345464+124029072+123883472+123717352+123515320+123416896+123504488
1994.03+123845944+124688176+126200888+127876976+128631976+127849088+126112256
1989.53+124609456+124000640+124078000+124341016+124594376+124900176+125206184
1985.04+125306408+125187248+125115672+125259592+125463688+125578808+125728176
1980.54+125988624+126106064+125881992+125626008+125781568+126265728+126581360
1976.04+126513416+126298040+126177472+126201480+126413368+126793480+127057688
1971.54+126894520+126383968+125875816+125616344+125800344+126667880+128041936
1967.04+129095248+129146384+128494488+127942408+127802040+127832824+127837664
1962.54+127786560+127631096+127426064+127392576+127554808+127640384+127591784
1958.04+127773960+128394360+129093128+129379424+129167112+128699576+128253184
1953.54+128047352+128167608+128444512+128614352+128608160+128564768+128601568
1949.04+128710608+128784016+128671880+128387776+128231896+128452832+128958712
1944.54+129737032+131258392+133690336+135905392+136218096+134291536+131532088
1940.04+129527032+128798528+128972072+129401696+129592112+129508632+129501456
1935.54+129767248+130134792+130512832+131018640+131494088+131495264+130997888
1931.04+130541904+130482784+130619024+130677160+130678136+130737056+130888216
1926.54+131098488+131290176+131530536+132284680+133956496+135978368+137025648
1922.04+136460608+134971616+133666656+133429448+135152304+139120640+143587296
1917.54+145394816+143171472+138885136+135411584+133805952+133481040+133712256
1913.04+134127792+134549952+135148416+136184528+137322176+137842496+137721488
1908.54+137660288+137910848+137902512+137233984+136311888+135758624+135727376
1904.04+136011376+136415168+136805424+137064288+137156320+137167184+137170880
1899.54+137113216+136939408+136803472+137049712+137914944+139240528+140434112
1895.04+140815344+140221248+139268512+138711040+138648288+138858128+139702480
1890.54+141762896+144406640+145769872+144837616+142733136+141250496+140902640
1886.04+141036592+141141216+141214704+141260608+141219952+141258080+141517856
1881.54+141735664+141615504+141369312+141390304+141619184+141757264+141850800
1877.04+142152288+142668944+143274784+143946144+144551088+144837040+144854368
1872.54+144958512+145471152+146919184+150212704+155413248+160474384+162546048
1868.04+160895456+157399088+154131536+151656320+149626768+147919840+146784208
1863.54+146379040+146524912+146892880+147287184+147717776+148254640+148892192
1859.04+149505680+149928976+150131008+150219536+150174880+149885504+149602400
1854.54+149871264+150725632+151536720+151886320+151913072+151740784+151398592
1850.04+151329344+152165184+153971232+156045424+157188784+156775040+156793808
1845.54+161534816+172399072+183378400+185604784+177697600+166699024+158890208
1841.04+155105616+153761168+153911296+155009344+156380720+157591232+158306720
1836.54+158198224+157524560+156937440+156606992+156408448+156449104+156760384
1832.04+157710080+160939280+167582128+175042784+178337456+175667152+169985840
1827.54+165095584+163291488+165526512+170295152+173285952+171492832+166874080
1823.04+163353168+162085408+161780640+161567504+161487248+161516208+161659472
1818.54+162154720+162818608+162992272+162404896+161472960+160825424+160869248
1814.04+161547536+162415664+163333792+164837760+167239936+169637904+170581904
1809.54+169666560+167950608+166781744+166541408+166620208+166438096+166069376
1805.04+165797936+165772848+166484560+168571984+171565856+173913712+175018816
1800.55+175950672+177255552+177557328+175508304+172049696+169600032+169480544
1796.05+170651792+171156288+171261920+174408512+183205376+194487504+200786224
1791.55+198302608+190521808+182656736+176756560+172860256+170946048+170437456
1787.05+170483776+171631056+174933504+179000080+180483056+178256976+174866064
1782.55+173420944+174939968+178304784+181125648+181251280+178776304+175844896
1778.05+174096448+173701312+174591904+176422016+177818784+178772160+183154912
1773.55+194867296+210948560+221681792+220036864+208566704+195366464+187401936
1769.05+187355936+192301824+195326688+191946848+184697856+179002816+176749664
1764.55+176279856+176905632+180573232+188380352+196954240+200229552+195877952
1760.05+188078320+182555840+181519168+184284768+189452880+194270928+194907872
1755.55+190724320+185611904+182929248+183025632+186949248+197091808+211097488
1751.05+220119456+218613920+211643600+207075856+206360800+206066144+203899312
1746.55+200357952+196902368+194941888+195466976+198227344+201301376+202254448
1742.05+200991360+201386640+207579536+217522336+223030896+219266000+210543920
1737.55+203546384+201018528+204791808+218592016+242649424+267190336+276927488
1733.05+265956544+243635904+223762560+213604064+211939968+212933248+212033648
1728.55+209160848+206521216+205221680+204912464+205216736+206284736+208303648
1724.05+210979952+213461984+214884592+215153392+215084480+216034208+220070176
1719.55+230146608+248101968+270434688+286689856+287348384+275577152+263819504
1715.05+258920112+257156144+252618032+245564128+240092688+238229648+239454704
1710.55+242546160+245604352+247105056+248527632+253236352+262072992+272286272
1706.05+280782240+286484896+289717568+290904896+290353888+290443264+298369216
1701.55+322688416+362186208+397409088+404201248+383028416+357583808+348632064
1697.05+362955456+393880864+421902752+426641600+409242144+389175840+380249792
1692.55+382182336+389005376+397789504+408232608+418978560+428445984+436602336
1688.05+443357152+448517600+455903040+473654528+506050048+543959936+567286208
1683.55+565096128+546828928+528129600+517602496+516313344+521040768+527138912
1679.05+531728992+535238304+539967552+548877888+564990464+587492288+607318848
1674.55+613207424+606015552+598535744+600060352+609030848+619909888+631718656
1670.05+646292736+661049920+669010688+667119744+660567616+656834752+658795968
1665.55+664689984+672844544+684359232+700305280+717540992+729698688+733713152
1661.05+733308864+734214912+738487616+744761088+751499712+757870144+763134464
1656.55+767883648+775293056+789823808+815274752+852364736+892207424+911966464
1652.05+893348736+848246720+804505024+778160192+769370240+771246528+777648896
1647.55+785787328+794634624+801357696+799811584+786310144+766408064+749969792
1643.05+741030400+736577344+733222400+730467712+727700864+723681344+719443904
1638.55+716925376+715874496+716711616+723139456+734872064+739972096+724932032
1634.05+692863680+658818240+632486144+614150528+600249088+587604864+574911232
1629.55+563287552+554381248+547096256+537916864+524862464+509552704+495853376
1625.05+487764480+486597120+488131104+484554112+472033568+454555744+438821024
1620.55+428004192+420741472+414887680+412441824+419089312+435648000+450150848
1616.06+446053952+423220672+397790816+381569024+373925248+369209280+364573120
1611.56+360263744+356989632+355107104+354083264+352382240+349357728+346216032
1607.06+343800000+341260992+338080064+335328672+333846272+333033472+332090720
1602.56+330902496+329511872+327973440+326605568+325571680+324690720+324041568
1598.06+323894144+324034144+324131264+324518752+325587392+326873248+327620608
1593.56+327701920+327486848+327516576+328315520+329660160+330445824+330161952
1589.06+329748384+330212768+331461888+333054176+334794560+336284832+337159744
1584.56+337742688+338504896+339572736+341274272+343803072+346265632+347943648
1580.06+349807104+352631904+356001056+362383456+378202944+404791136+429212320
1575.56+433162592+415984096+394751200+382704224+380407744+382514656+386885568
1571.06+396233888+411665344+426900096+432305344+425942560+415697440+409735520
1566.56+410260672+415430144+422310208+427731520+429736384+429178624+429363360
1562.06+435384736+453014752+484086752+521348512+551994112+568748736+570799424
1557.56+556671616+529400000+503336864+493536288+501702848+515098208+519366272
1553.06+512582976+503486240+500157792+504353728+512425504+518817760+520172256
1548.56+517318432+513616640+512389408+515900032+524269440+533529184+537588288
1544.06+535933792+536004896+543584832+554755136+562352640+567980224+578126080
1539.56+588943616+585283008+560332864+525912960+497303456+480584672+474709056
1535.06+477247168+485336768+492987712+492560864+482150208+467683584+455360000
1530.56+446536896+440799360+438853088+439986240+440907264+440179104+440230016
1526.06+442188928+442346976+436934976+428414400+424125408+429734208+444291072
1521.56+459226752+462744032+449236736+425266688+404315904+396108352+399607200
1517.06+404465888+401748512+392232160+381249312+371458592+364183968+361168384
1512.56+360956640+358519552+352045760+345602464+343112384+345004128+351667936
1508.06+365033728+384246560+401753184+406050176+390643232+360750912+329178688
1503.56+306128352+294043744+289443328+287391392+285568864+285670720+289827488
1499.06+295434400+297259168+296213696+299024896+305985088+306662240+293997792
1494.56+275361760+261784160+255873664+254695408+257265536+264229472+272884608
1490.06+277402368+274898592+268680224+263984736+261983424+259352272+253553408
1485.56+246482320+241483136+239200080+238233040+238022224+238901904+240196880
1481.06+240369120+239014656+237229840+236096064+236347824+239379424+246109456
1476.56+253977376+258116336+258029936+259819216+268808672+282679456+293509984
1472.06+294977568+286333536+271838144+258308704+250754320+248862096+248813232
1467.56+248449728+249323696+254229808+263616848+273076096+275284032+267993024
1463.06+257674256+251489296+250045872+250836480+254088464+261169760+271565248
1458.56+285773536+306114016+328849696+340238592+330341664+306906272+285035520
1454.06+271992672+266519008+264879024+264267712+263062576+261001056+259628960
1449.56+261214640+266223936+271871584+274033472+271260320+266066448+261840752
1445.06+259725296+258756544+257867008+256998544+256503760+256298352+256077456
1440.56+255782464+255243712+254691984+256979552+266812944+283986208+298064512
1436.06+296446240+280153728+262324256+252148704+248703312+247400992+246655680
1431.57+247572384+250631456+254304592+255705840+253059168+248261552+245165264
1427.07+244991312+245899920+247020768+249513952+253203904+255722368+255659824
1422.57+253777568+251854352+253373440+262875744+279780064+293961664+294392000
1418.07+282836288+270355424+263276320+260043632+257882352+256600192+256477520
1413.57+256872016+257509136+258639024+259930096+260787296+261391440+262332320
1409.07+263690464+265111520+266309952+267456992+269396800+272885184+276939232
1404.57+278906080+277405824+274232128+272043776+271535616+272350784+275242848
1400.07+280862752+286895232+289092768+285919200+280285088+276434400+276843616
1395.57+281193856+286071968+286552512+280687072+271888608+265064976+261851248
1391.07+260636160+259586736+258617840+259229056+262720304+267631344+269498912
1386.57+265230480+257108112+250110912+246570800+245274160+244365808+243185024
1382.07+241791792+240339776+239010656+237938368+237196144+236779872+236392752
1377.57+235633632+234777360+234879344+236717328+239820944+242522896+242911200
1373.07+240335360+236270880+232992352+231356656+230691856+230527360+230993424
1368.57+231648928+231523008+230487312+229244784+228167888+227582720+228694208
1364.07+232345360+236951728+239467552+238737568+236359088+234140608+232423856
1359.57+231036240+230198800+229903312+229611232+229218000+229433824+230628800
1355.07+232035664+232605072+232151792+231253808+230437712+229910496+229822704
1350.57+230367296+231476560+232619888+233228272+233386512+233701520+234424320
1346.07+235174912+235693376+236237376+236943680+237465856+237631728+237972656
1341.57+239239584+241660272+244710688+247310224+248440480+248030944+247054784
1337.07+246448704+246228896+246016960+245962256+246584912+247966384+249623264
1332.57+251116432+252420304+253770112+255376624+257269792+259212688+260837200
1328.07+261967680+262739072+263321584+263739200+264077376+264607744+265409552
1323.57+266111584+266352224+266310128+266419440+266753472+267089728+267406192
1319.07+267867440+268393808+268668864+268545760+268176064+267755856+267376416
1314.57+267079376+266957712+267164416+267770256+268512928+268880352+268673344
1310.07+268327168+268406352+268958976+269617600+270122208+270378400+270214784
1305.57+269564544+268864960+268840640+269740448+271036288+271994464+272359104
1301.07+272354016+272225824+272102560+272216512+272863104+273945184+274880736
1296.57+275209952+275133216+275192288+275539808+275787296+275575168+275126720
1292.07+275115360+275959456+277296928+278333856+278726432+278881088+279288384
1287.57+279856320+280137888+279940672+279465984+279034752+278924224+279308480
1283.07+280123840+281080960+281898592+282456064+282679648+282502816+282008064
1278.57+281451296+281058816+280884512+280886752+281035392+281280480+281471296
1274.07+281446240+281244064+281169216+281500768+282163680+282828000+283254336
1269.57+283387232+283234752+282986304+283129568+284040992+285428960+286569824
1265.07+287116288+287344928+287580288+287792064+287942240+288370304+289489984
1260.57+291195040+292870976+294031520+294693664+295105056+295389632+295541856
1256.07+295487904+295077088+294274112+293399936+292859360+292599264+292190240
1251.57+291431296+290573376+289916224+289459200+288965376+288235328+287344512
1247.08+286613632+286182976+285745056+284967552+284023072+283369088+283093152
1242.58+282812352+282181792+281276832+280513216+280257440+280464608+280694976
1238.08+280569344+280129792+279654880+279234912+278647584+277627872+276223840
1233.58+274905088+274189312+274110400+274176704+273875808+273088064+272052256
1229.08+271112736+270447072+269839296+268803360+267067440+264910208+262909328
1224.58+261437952+260462416+259794368+259324000+258918688+258300208+257289552
1220.08+256048592+254800848+253495376+252113456+251025392+250558368+250469152
1215.58+250283680+249865424+249295328+248579536+247833568+247291952+246924624
1211.08+246530784+246271504+246535200+247222736+247780432+247979456+248206224
1206.58+248884080+249989888+251157744+252086864+252791952+253490320+254301808
1202.08+255226192+256329216+257692208+259191072+260596752+261899952+263298752
1197.58+264909168+266682592+268515168+270316512+272049248+273780448+275668960
1193.08+277896192+280545536+283422208+286054080+288133024+289907680+291933888
1188.58+294490624+297456064+300629920+303906464+307160352+310190624+312860768
1184.08+315275136+317727808+320428096+323371936+326513344+329887168+333386496
1179.58+336662048+339541472+342421440+345898496+350025440+354257952+358207456
1175.08+362081024+366106944+369952000+373237088+376343808+379982592+384159520
1170.58+388262464+392046688+395836832+399948608+404492352+409387712+414147136
1166.08+418201312+421789344+425790240+430465280+435281792+439995872+444837664
1161.58+449682176+454222528+458829696+464081696+469641280+474726816+479414144
1157.08+484425600+489864384+495141888+500038240+505044576+510589888+516466464
1152.58+522165376+527546752+532995168+539006912+545726400+552840832+559807040
1148.08+566272576+572418880+578757824+585502336+592455680+599631872+607417536
1143.58+615793408+624015872+631536000+638760128+646412160+654505664+662401472
1139.08+669635136+676308928+682874112+689866432+697666624+706143104+714586048
1134.58+722348864+729507392+736602944+743883648+751211456+758585152+766199936
1130.08+774057984+781976832+789840384+797381056+804094528+809924992+815654656
1125.58+822010944+828755264+835205824+841239680+847215744+853259648+859143872
1121.08+864745600+870286080+876118848+882288128+888273472+893432064+897773184
1116.58+901953600+906437952+911068928+915587264+919997632+924232704+927993344
1112.08+931235904+934400256+937929792+941794944+945650048+949277184+952804864
1107.58+956554240+960632128+964693120+968273856+971343872+974308992+977516288
1103.08+981000704+984586432+988034496+991231168+994360832+997669504+1001076928
1098.58+1004372416+1007637056+1010981632+1014076352+1016610752+1018986048
1094.73+1021846464+1025116736+1028075904+1030279168+1031998656+1033893632
1090.87+1036376320+1039165504+1041531072+1043107776+1044183424+1045153088
1087.01+1046126144+1047117568+1048147776+1049267072+1050819520+1053155392
1083.16+1055726912+1057357248+1057878720+1058501056+1060047360+1061966400
1079.30+1063452224+1064319680+1064563072+1064274304+1064142848+1064912832
1075.44+1066398016+1067937536+1069434304+1071003584+1072114624+1072155584
1071.58+1071518016+1071259520+1071889344+1072978432+1073741824+1073602240
1067.73+1072436608+1070567936+1068366272+1065714944+1062044800+1056923264
1063.87+1050348992+1042423232+1033098560+1022452480+1010956160+999144960
1060.01+987113984+974618176+961739200+949219008+937746432+926889792+915293952
1055.51+902367360+889301632+877752704+867883648+858372608+848031808+836719552
1051.01+824956672+813349184+802247936+791580032+781060096+770526016+759826048
1046.51+748639744+736951104+725468352+715045056+705746688+696775296+687230976
1042.01+676918208+666584128+657218816+648948864+640849600+632038272+622646656
1037.52+613642944+605845376+598976192+591654912+582831040+573285440+564934400
1033.02+558657984+553698304+549079552+544363200+539026304+532454784+524859552
1028.52+517291840+510566688+504746112+499560064+494801856+490483136+486864928
1024.02+484106272+481769536+479095360+475809664+472323744+469238592+466970560
1019.52+465737120+465469984+465766272+466200864+466649504+467238208+468135520
1015.02+469518944+471514528+474043968+476899808+480047424+483575616+487305984
1010.52+490896800+494542272+499099424+505108800+512007872+518723616+524807040
1006.02+530716608+537094848+544074880+551318272+558599296+566098240+573950144
1001.52+581775808+589065024+595826624+602403456+608882688+615275648+621997760
997.02+629443776+637162560+644203456+650306432+656169024+662429248+668893888
992.52+674918272+680226112+685112512+689963520+694752896+699025344+702383424
988.02+704992704+707543808+710569088+713847360+716625152+718385152+719203968
983.52+719416320+719265728+718919616+718540992+718141824+717472064+716195072
979.02+714180096+711625664+708922624+706397632+704096768+701702080+698694208
974.52+694774080+690176192+685368960+680465664+675232448+669690176+664248448
970.02+659110912+653909376+648159296+641853248+635412480+629162688+622989056
965.52+616610176+610085696+603723392+597454208+590791616+583677760+576852160
961.02+571019200+566003392+561012608+555501056+549601792+543977792+539213248
956.52+535165600+531039424+526232064+520860960+515374464+510057376+505053280
952.02+500510752+496476512+492786368+489228416+485750432+482431360+479232960
947.52+475934144+472435744+468988000+465903904+463176224+460607552+458099968
943.02+455640864+453261664+451137056+449438496+448072384+446802432+445532192
938.52+444216960+442729888+441056896+439352480+437767200+436500832+435816192
934.02+435585216+435224704+434526944+433984128+433784000+433193312+431520672
929.52+429081184+426719840+424873088+423406720+422028256+420698528+419744544
925.02+419371232+419040928+417812480+415432064+412627008+410269856+408613312
920.52+407333664+406027744+404708576+403825536+403627520+403656032+403294240
916.02+402574528+401916384+401288384+400223648+398621632+397081088+396358624
911.52+396610816+397153248+397033152+395978752+394678880+393969216+393921120
907.02+393899840+393380512+392506944+391935456+392194176+393120352+393951456
902.52+394053952+393518592+392982528+393078208+394111744+395995008+398262464
898.02+400364000+402087840+403585472+405052928+406595744+408208032+409545408
893.52+410082464+409944480+410135072+411358080+413107104+414602592+416026368
889.02+418059584+420683808+423239328+425282400+426785888+427799552+428415456
884.52+428980704+430054816+432034880+434706816+437290784+439225568+440775168
880.02+442496672+444365920+445916352+446950016+447588320+447922784+448065856
875.52+448447168+449638208+451723072+453842624+454710976+454041504+453139808
871.02+453400576+454593824+455497408+455738688+455909312+456283584+456512672
866.52+456364448+455890592+455118880+454152384+453266848+452500928+451496448
862.02+450095648+448834720+448360288+448309888+447320224+444655872+441471776
857.52+439584384+439341120+439618208+439317152+437861920+435100576+431888704
853.03+429718656+428644928+426996032+424054080+421233664+419727552+418818752
848.53+417297216+414874720+411710720+407945952+404103328+400945952+398876608
844.03+397583232+396163424+394065568+392235328+392313728+394218656+395817376
839.53+395574336+393926432+391386336+387109696+380814432+374763872+371752064
835.03+371381088+370464960+367294432+363644128+362056576+362852736+364510848
830.53+365405216+364698432+362778208+360944512+359832640+358626912+356491680
826.03+353851584+351761184+350953728+351775936+353874880+355910432+356452928
821.53+355131424+352548896+349773856+347827680+346774688+345647296+344068288
817.03+343001824+343051200+343426912+343374848+342940608+342070528+340980256
812.53+341315328+344319200+347927200+348598400+346293888+344920896+347207968
808.03+351342432+353583872+352725728+350672064+349437696+349282816+349994688
803.53+352266752+356238720+359825376+360419200+358273344+356484576
##END=
