##TITLE=Methyl Ethyl Ketone
##JCAMP-DX=4.24
##DATA TYPE=INFRARED SPECTRUM
##XUNITS=cm-1
##YUNITS=Absorbance
##FIRSTX=900
##LASTX=2300
##XYDATA=(X++(Y..Y))
2296 -0.014905
2294 -0.015214557
2292 -0.015525112
2290 -0.015834672
2288 -0.016145224
2286 -0.016454786
2284 -0.016765334
2282 -0.0170749
2280 -0.017385446
2278 -0.017695013
2276 -0.018005557
2274 -0.018315129
2272 -0.018625669
2270 -0.018935243
2268 -0.019245781
2266 -0.019555358
2264 -0.019865893
2262 -0.020175472
2260 -0.020486003
2258 -0.020795586
2256 -0.021106115
2254 -0.021415699
2252 -0.021726225
2250 -0.022035815
2248 -0.022346336
2246 -0.022655929
2244 -0.00084191712
2242 0.01694037
2240 0.041646879
2238 0.075942062
2236 0.11163618
2234 0.13341203
2232 0.15225239
2230 0.12740192
2228 0.098211281
2226 0.051153697
2224 0.0058488734
2222 -0.027235476
2220 -0.053118784
2218 -0.059032906
2216 -0.057153113
2214 -0.040703334
2212 -0.021530019
2210 0.00068106339
2208 0.026290696
2206 0.055902276
2204 0.086106762
2202 0.1166265
2200 0.13810028
2198 0.1527732
2196 0.17442143
2194 0.20035677
2192 0.24612109
2190 0.30046648
2188 0.3610535
2186 0.42348829
2184 0.48364678
2182 0.54324275
2180 0.57860416
2178 0.60982955
2176 0.59901917
2174 0.58402151
2172 0.5652653
2170 0.54840028
2168 0.54443777
2166 0.53603476
2164 0.50686926
2162 0.4704524
2160 0.42078304
2158 0.38376519
2156 0.373303
2154 0.37896377
2152 0.40401155
2150 0.42955115
2148 0.4533588
2146 0.48060107
2144 0.51102602
2142 0.54732668
2140 0.5874849
2138 0.61265379
2136 0.62943369
2134 0.61927789
2132 0.59807527
2130 0.56629473
2128 0.53143799
2126 0.51513964
2124 0.50322497
2122 0.52701056
2120 0.55708957
2118 0.59927082
2116 0.64002216
2114 0.65712899
2112 0.66336578
2110 0.63648224
2108 0.59948403
2106 0.54660499
2104 0.49241945
2102 0.44059336
2100 0.3958852
2098 0.36256188
2096 0.34614
2094 0.34971216
2092 0.36817995
2090 0.39905843
2088 0.42834005
2086 0.45473552
2084 0.47388884
2082 0.48848695
2080 0.48819435
2078 0.4804385
2076 0.45486629
2074 0.42228836
2072 0.4051812
2070 0.39332837
2068 0.40224567
2066 0.41568899
2064 0.40159303
2062 0.38145965
2060 0.35367587
2058 0.3321383
2056 0.35322428
2054 0.38837317
2052 0.44416982
2050 0.50048327
2048 0.54811966
2046 0.59101641
2044 0.62823761
2042 0.65436298
2040 0.6649366
2038 0.65364563
2036 0.61909616
2034 0.57725853
2032 0.53259724
2030 0.49809331
2028 0.47224662
2026 0.45268628
2024 0.43641582
2022 0.42405245
2020 0.4135848
2018 0.39194304
2016 0.36529601
2014 0.31457898
2012 0.25561044
2010 0.20899987
2008 0.16817793
2006 0.16841529
2004 0.17999469
2002 0.19867079
2000 0.21289235
1998 0.20137356
1996 0.18157429
1994 0.15719719
1992 0.13901554
1990 0.13604699
1988 0.13790821
1986 0.14000943
1984 0.12887503
1982 0.09929052
1980 0.052610509
1978 -0.00789057
1976 -0.058018543
1974 -0.095356345
1972 -0.097306721
1970 -0.073856637
1968 -0.043441296
1966 -0.011624644
1964 -0.022459205
1962 -0.05636913
1960 -0.11908448
1958 -0.19326594
1956 -0.26014429
1954 -0.32366472
1952 -0.36758658
1950 -0.4032
1948 -0.41308987
1946 -0.4140175
1944 -0.41183949
1942 -0.41088563
1940 -0.4230448
1938 -0.43874645
1936 -0.45437285
1934 -0.46898276
1932 -0.47971481
1930 -0.48456082
1928 -0.47986406
1926 -0.45518586
1924 -0.40671772
1922 -0.34377608
1920 -0.27293128
1918 -0.22584711
1916 -0.20378429
1914 -0.20672596
1912 -0.22436714
1910 -0.25496337
1908 -0.29154825
1906 -0.35326687
1904 -0.42855161
1902 -0.48701867
1900 -0.53742754
1898 -0.51592445
1896 -0.46412143
1894 -0.38043612
1892 -0.2913368
1890 -0.2520183
1888 -0.24611875
1886 -0.30476043
1884 -0.38655159
1882 -0.46623194
1880 -0.52683628
1878 -0.54336262
1876 -0.52746701
1874 -0.47685629
1872 -0.40268078
1870 -0.30845633
1868 -0.22209217
1866 -0.15702708
1864 -0.13732143
1862 -0.162356
1860 -0.21514723
1858 -0.28114474
1856 -0.35487914
1854 -0.43075466
1852 -0.4874047
1850 -0.52948958
1848 -0.53178841
1846 -0.51042682
1844 -0.50460434
1842 -0.50768173
1840 -0.54577899
1838 -0.59791154
1836 -0.61868602
1834 -0.61738008
1832 -0.56664681
1830 -0.49154711
1828 -0.41131189
1826 -0.34431463
1824 -0.32626587
1822 -0.34547544
1820 -0.40047222
1818 -0.46565124
1816 -0.52046859
1814 -0.56029755
1812 -0.5821991
1810 -0.59243298
1808 -0.5967142
1806 -0.58191252
1804 -0.54933316
1802 -0.50619376
1800 -0.45615828
1798 -0.41352642
1796 -0.37757716
1794 -0.34121016
1792 -0.30573678
1790 -0.28060713
1788 -0.26441807
1786 -0.25010663
1784 -0.23652183
1782 -0.20418438
1780 -0.1585139
1778 -0.086591758
1776 0.0018967427
1774 0.10210007
1772 0.19176948
1770 0.22075599
1768 0.20457759
1766 0.14518686
1764 0.082529455
1762 0.057739582
1760 0.020920079
1758 -0.059004515
1756 -0.12417352
1754 -0.14461142
1752 -0.094949961
1750 0.023506541
1748 0.13474175
1746 0.21397571
1744 0.19189125
1742 0.077410243
1740 -0.023993496
1738 -0.096642315
1736 -0.048792183
1734 0.090943985
1732 0.18812659
1730 0.24238956
1728 0.15453938
1726 -0.021823406
1724 -0.12973201
1722 -0.1561331
1720 0.015365258
1718 0.35349566
1716 0.89920372
1714 1.5495158
1712 2.1318326
1710 2.676667
1708 3.2271099
1706 3.9526536
1704 5.0128441
1702 6.6435857
1700 8.9536982
1698 12.066155
1696 15.914143
1694 19.780441
1692 23.34606
1690 26.543324
1688 29.436708
1686 32.888412
1684 36.979004
1682 41.889084
1680 47.441719
1678 52.273586
1676 56.424084
1674 60.319923
1672 64.100914
1670 68.511467
1668 73.385109
1666 78.182404
1664 82.801285
1662 86.894691
1660 90.478539
1658 93.551773
1656 96.09494
1654 98.088226
1652 99.383804
1650 99.842926
1648 99.287849
1646 97.639648
1644 95.363464
1642 92.900406
1640 90.186272
1638 87.225029
1636 83.567245
1634 79.109116
1632 74.45752
1630 69.84552
1628 65.552208
1626 61.600864
1624 57.562519
1622 53.384109
1620 49.236443
1618 45.143337
1616 41.313541
1614 37.773102
1612 34.690628
1610 32.072029
1608 29.866867
1606 28.048414
1604 26.463404
1602 25.1276
1600 24.030313
1598 23.187429
1596 22.584499
1594 22.206924
1592 22.001326
1590 21.935574
1588 21.959129
1586 22.070364
1584 22.259605
1582 22.543011
1580 22.923758
1578 23.462872
1576 24.177599
1574 25.073658
1572 26.142109
1570 27.268051
1568 28.422359
1566 29.550428
1564 30.649811
1562 31.950989
1560 33.562927
1558 36.190403
1556 39.89983
1554 43.980751
1552 48.179199
1550 51.383923
1548 53.651669
1546 55.621571
1544 57.336987
1542 58.978363
1540 60.2714
1538 60.809723
1536 60.512745
1534 59.4193
1532 57.88549
1530 56.347958
1528 54.835274
1526 53.367851
1524 51.77713
1522 49.95311
1520 47.791714
1518 45.215759
1516 42.657059
1514 40.258194
1512 38.011238
1510 35.947929
1508 33.392899
1506 30.180693
1504 26.901062
1502 23.607229
1500 20.844917
1498 18.67634
1496 16.556429
1494 14.470874
1492 12.318043
1490 10.101158
1488 7.8647962
1486 5.692008
1484 3.7426281
1482 2.128036
1480 0.96339929
1478 0.2684778
1476 0.056694388
1474 0.40795809
1472 1.2491438
1470 2.2570801
1468 3.2314522
1466 4.0486555
1464 4.6174932
1462 5.1243858
1460 5.6427422
1458 6.1939249
1456 6.7911201
1454 7.2345386
1452 7.419898
1450 7.4214444
1448 7.1648026
1446 6.8781748
1444 6.5573564
1442 6.265635
1440 6.0080285
1438 5.7377939
1436 5.426023
1434 4.9894824
1432 4.4221549
1430 3.8030779
1428 3.1866641
1426 2.7107651
1424 2.4060006
1422 2.290426
1420 2.3384225
1418 2.4970288
1416 2.7060313
1414 2.900543
1412 3.0836644
1410 3.2652793
1408 3.4800885
1406 3.7652345
1404 4.1058483
1402 4.5171623
1400 4.9518843
1398 5.4079657
1396 5.8329573
1394 6.1909404
1392 6.4588037
1390 6.5620227
1388 6.5572658
1386 6.3796601
1384 6.1038895
1382 5.6952453
1380 5.2429266
1378 4.7454524
1376 4.2530489
1374 3.7761478
1372 3.3225579
1370 2.9003227
1368 2.5164599
1366 2.1524129
1364 1.7779717
1362 1.3886287
1360 0.97272044
1358 0.58141547
1356 0.28031045
1354 0.07252077
1352 0.012809406
1350 0.029275864
1348 0.12166682
1346 0.243885
1344 0.42177439
1342 0.63284475
1340 0.90405285
1338 1.1726598
1336 1.4254857
1334 1.631898
1332 1.7479718
1330 1.856532
1328 1.9609371
1326 2.1091306
1324 2.3321679
1322 2.6167605
1320 2.9829509
1318 3.3871107
1316 3.81707
1314 4.2065229
1312 4.532114
1310 4.7611833
1308 4.9005671
1306 4.9689269
1304 4.990262
1302 4.9873619
1300 4.9698987
1298 4.9380064
1296 4.8961
1294 4.8367186
1292 4.7740211
1290 4.7117515
1288 4.6547403
1286 4.6108608
1284 4.5727172
1282 4.5461969
1280 4.5258527
1278 4.5199633
1276 4.525763
1274 4.5562391
1272 4.5997839
1270 4.6667409
1268 4.7433686
1266 4.8337655
1264 4.93191
1262 5.0372715
1260 5.1413541
1258 5.2423749
1256 5.3365602
1254 5.4265857
1252 5.5211673
1250 5.6214881
1248 5.7328176
1246 5.8468251
1244 5.9499578
1242 6.0348835
1240 6.0712023
1238 6.0736208
1236 6.0092244
1234 5.9073257
1232 5.7240682
1230 5.4972334
1228 5.1558084
1226 4.7812538
1224 4.3210363
1222 3.8564532
1220 3.3834534
1218 2.925055
1216 2.497577
1214 2.0917027
1212 1.7246132
1210 1.3816004
1208 1.075121
1206 0.79453212
1204 0.54842722
1202 0.33446944
1200 0.15463573
1198 0.00038304925
1196 -0.1337693
1194 -0.26049119
1192 -0.37598556
1190 -0.4619568
1188 -0.51698065
1186 -0.49766648
1184 -0.4364644
1182 -0.30306208
1180 -0.13458227
1178 0.11072348
1176 0.38709199
1174 0.74695873
1172 1.105502
1170 1.4372503
1168 1.7227629
1166 1.8636343
1164 1.952232
1162 1.912635
1160 1.848048
1158 1.7346481
1156 1.6154357
1154 1.484742
1152 1.3394115
1150 1.1717087
1148 0.98109901
1146 0.76679283
1144 0.55154741
1142 0.34267944
1140 0.17335135
1138 0.042086672
1136 -0.025003172
1134 -0.047472253
1132 0.0078295618
1130 0.10188633
1128 0.24354257
1126 0.40030971
1124 0.56859016
1122 0.73375434
1120 0.8716228
1118 0.99614853
1116 1.06283
1114 1.1256726
1112 1.1778177
1110 1.242643
1108 1.3467032
1106 1.44985
1104 1.5471102
1102 1.6137213
1100 1.6188911
1098 1.599519
1096 1.5442142
1094 1.4987055
1092 1.4682699
1090 1.4625943
1088 1.4828999
1086 1.5198314
1084 1.568904
1082 1.614759
1080 1.651528
1078 1.636899
1076 1.5895071
1074 1.4728508
1072 1.3323063
1070 1.1835452
1068 1.0360613
1066 0.91180247
1064 0.79047799
1062 0.66885424
1060 0.54976493
1058 0.44737488
1056 0.35441345
1054 0.30289495
1052 0.25825164
1050 0.2354836
1048 0.21349469
1046 0.19308607
1044 0.17033294
1042 0.14220369
1040 0.10524741
1038 0.055762328
1036 0.0087829996
1034 -0.033406004
1032 -0.056529373
1030 -0.064175755
1028 -0.086896829
1026 -0.12376586
1024 -0.20113035
1022 -0.29830119
1020 -0.38134176
1018 -0.45552
1016 -0.49192342
1014 -0.52033949
1012 -0.57258737
1010 -0.6319173
1008 -0.72619402
1006 -0.82234848
1004 -0.90663606
1002 -0.98885959
1000 -1.0576401
998 -1.1228282
996 -1.1716143
994 -1.204494
992 -1.1874824
990 -1.1504607
988 -1.0683894
986 -0.99130839
984 -0.92419052
982 -0.88256168
980 -0.87537539
978 -0.88077062
976 -0.89901429
974 -0.91414869
972 -0.92560303
970 -0.91458911
968 -0.88744754
966 -0.8154605
964 -0.72246659
962 -0.61485261
960 -0.50345087
958 -0.40905887
956 -0.31819355
954 -0.22295865
952 -0.12865745
950 -0.068544358
948 -0.013084753
946 -0.0043121893
944 0.00084997714
942 0.02735547
940 0.10942712
938 0.31906509
936 0.54097998
934 0.79833829
932 1.0339805
930 1.222419
928 1.3654183
926 1.4355278
924 1.478086
922 1.4873708
920 1.4965577
918 1.5052103
916 1.4801
914 1.4304513
912 1.3253675
910 1.1916471
908 1.0765785
906 0.96993172
904 0.96193475
902 0.98064017
900 1.0925635
898 1.2196376
896 1.3857
