##TITLE=octarelline 6 front
##JCAMP-DX=4.24
##DATA TYPE=INFRARED SPECTRUM
##DATE=31/1/2005
##TIME=16:56:5
##SAMPLING PROCEDURE=film
##ORIGIN=Vincent
##DATA PROCESSING=no operation
##XUNITS=1/CM
##YUNITS=ABSORBANCE
##RESOLUTION=2
##FIRSTX=4000.283
##LASTX=800.31372
##DELTAX=-0.64282227
##MAXY=0.23652665
##MINY=-0.0029474476
##XFACTOR=1
##YFACTOR=2.2028261e-010
##NPOINTS=4979
##FIRSTY=0.0047487631
##XYDATA=(X++(Y..Y))
4000.28+21557594+22075174+22257716+21984862+21284010+20383800+19739536+19729566
3995.14+20181130+20404102+19980146+19339454+19235266+19735264+20159880+20017184
3990.00+19573132+19420748+19777754+20341766+20679112+20647408+20424404+20152996
3984.86+19742860+19169170+18731834+18746902+19154932+19679124+20144922+20397928
3979.71+20205588+19562332+18902202+18680468+18882388+19157184+19318688+19469760
3974.57+19708792+19964712+20131506+20178874+20081052+19824048+19559364+19563400
3969.43+19915804+20372402+20683032+20849768+20930286+20798224+20346636+19814434
3964.28+19631408+19897762+20230282+20237406+19994154+19882332+20073808+20392348
3959.14+20621874+20722576+20728752+20624486+20395196+20099810+19865122+19770990
3954.00+19747014+19676628+19629152+19740602+19812892+19418136+18548436+17756072
3948.86+17438314+17420768+17459062+17662874+18162234+18721040+18957848+18725310
3943.71+18186904+17702360+17649356+18129622+18830778+19295668+19332690+19120878
3938.57+19016696+19284752+19906428+20600382+21062600+21164986+20823518+19831408
3933.43+18167334+16479781+15790831+16395291+17456216+18032728+18148480+18469554
3928.29+19308246+20292260+20751788+20240494+18957492+17727020+17245672+17440922
3923.14+17863150+18335872+18758054+18782020+18289732+17782990+17747060+17939400
3918.00+17772198+17161150+16672588+16882718+17755006+18720092+19363904+19797818
3912.86+20249992+20657856+20865202+20833972+20538990+20076658+19825356+19939430
3907.72+19885774+19067600+17539328+15605690+13370926+11235364+9935058+9508742
3902.57+9263740+9125489+9771251+11116947+12063891+12139917+12239358+13367377
3897.43+15477889+17750498+19370310+20002818+19955574+19806720+19613248+18704074
3892.29+16620565+14219881+13361698+15057953+18247632+20957840+22156580+21730108
3887.15+19444720+15394984+11338896+9906832+11830511+15270396+18164014+19773482
3882.00+19994866+18753070+16654575+15192474+15521595+17380932+19692058+21714070
3876.86+23152478+23591982+22542730+20178756+17658842+16435820+17082676+18566468
3871.72+18717838+15963192+11118011+7229331+6955248+10180145+14657756+18138280
3866.58+19310380+17916276+15144160+13304672+13883874+16011530+17730816+18400756
3861.43+18944556+20104318+21540012+22653872+23194570+23045708+22414006+21799258
3856.29+20429156+15604268+5822758-5565052-12306206-12004418-7637837-1930255
3851.15+4976469+12428794+18195208+21093008+22156816+22839200+23567126+24122708
3846.01+24187544+23398738+21718464+19844822+18782848+18864828+19336490+19165728
3840.86+18258186+17224096+15682326+12208259+7104078+3766818+5056698+9340248
3835.72+12926122+14781712+16377637+18283092+19284156+18603952+17232510+16828200
3830.58+18048264+20150858+21943864+22805436+22728284+21888252+20739676+20150502
3825.44+20583402+21380940+21503896+20430820+17854492+13637975+8987484+6454001
3820.29+7498498+11014845+14951144+17697734+17645444+13821747+8036824+4661471
3815.15+6501278+11918233+17360782+20912948+22639842+23239754+23276376+23095764
3810.01+22866900+22446452+21058202+17729630+12960307+9519013+10040648+13868610
3804.86+17971416+20282996+20308048+17554148+11890922+5660235+3089592+6047766
3799.72+11963868+17073076+19724818+20172584+19237874+18083132+17999998+19297326
3794.58+20950238+21914396+22202690+22398316+22779998+23244390+23543104+23396120
3789.44+22775480+22107736+21843222+21959552+22128772+22097872+21746740+21167718
3784.29+20763664+20863778+21282702+21597038+21575534+21028868+19783930+18244782
3779.15+17377140+17704492+18848810+20235744+21568762+22548198+22873082+22613692
3774.01+22148976+21793318+21652762+21442950+20381782+17951850+14995192+13400149
3768.87+14229941+16574937+18511662+18840982+17892912+16950990+16976710+17860422
3763.72+18916558+19745470+20310304+20404340+19528388+17566952+15453256+14624132
3758.58+15432055+16642843+17035858+16869800+17169564+18184294+18974458+17868368
3753.44+13412808+6266433+137730-1650359-774724-1489965-4097161-4477779-154404
3747.65+6520849+11548222+11945070+6066744-4554222-13378666-13380300-5147140
3742.51+4391160+10480429+13332356+14820901+15847927+16408803+16060695+14183189
3737.37+10813728+7041336+4169285+3040395+4037868+6493260+8316251+7867394
3732.23+6227295+6243328+9102940+13182463+16385457+18038540+18466114+17988138
3727.08+16793946+15286266+14189935+14130401+14902599+15412276+14833808+13663415
3721.94+13104860+13580705+14469524+15177908+15734445+16352162+17063238+17851882
3716.80+18606680+18932930+18515576+17558060+16214716+13838670+9921949+5833837
3711.66+4156214+5541093+7868220+9290186+10292834+12059635+14443481+16523389
3706.51+17916276+18675840+18842048+18625066+18233160+17335648+15541967+13485336
3701.37+12545279+13341939+15171040+16944588+18107680+18677502+18927710+19128470
3696.23+19344798+19369600+18969830+18238618+17462266+16449209+14513443+11710284
3691.09+9379329+8230696+6647952+2905758-1314526-1901610+2507549+8767098
3685.94+13349749+15543033+16363181+16567116+16485350+16532278+16912230+17260606
3680.80+17021040+16050388+14826230+14074180+13822456+12708252+8949473+2602034
3675.66-3423221-5426305-2220910+4126773+10160181+12835281+10871863+5849512
3670.52+1475805+467520+2503901+5940033+9912147+13866242+16812552+18192716
3665.37+18509408+18543810+18644642+18904810+19265050+19493734+19561618+19668320
3660.23+19691584+19307772+18639066+17780618+16024205+12934047+9927382+9243314
3655.09+11343270+14667936+17511466+18829356+17996796+15055110+10839604+6357916
3649.94+2523904+448126+864259+3123606+5863302+8578603+11606379+14910296
3644.80+17838010+19869748+20936820+21210360+21046920+20934920+21118778+21357420
3639.66+21281986+20920074+20704408+21001430+21722978+22418522+22643412+22223726
3634.52+21329384+20489950+20381424+21209410+22135308+21498074+17992172+12061289
3629.37+6258417+3741740+5766894+10765757+16084509+20072978+22512776+23867558
3624.23+24552554+24734372+24570998+24292706+23793100+22467016+20053034+17492376
3619.09+16249313+16815638+18507868+20496484+22240362+23275186+23436552+23047372
3613.95+22371812+21391038+20591832+21030174+22714616+23881354+22961768+20607626
3608.80+18925812+19087058+20562028+22419116+24348982+26377918+28281384+29587406
3603.66+30006040+29684392+29056284+28539610+28342304+28370556+28301292+28016276
3598.52+27916038+28423130+29211324+29462280+28937506+28298314+28332766+29246390
3593.38+30670018+31999362+32823758+33149028+33024624+32105542+30185496+27980042
3588.23+26602304+26331232+26713914+27684232+29502476+31751910+33452118+34214700
3583.09+34533020+34904140+35237048+35222692+34929980+34833092+35279400+36076204
3577.95+36759592+37154720+37406328+37560708+37535560+37458188+37624908+38116176
3572.81+38711824+39148456+39298896+39187652+38902016+38383476+37433628+36117852
3567.66+34952104+34426352+34611716+35426320+36857404+38651064+40213068+41169884
3562.52+41690724+42041228+42212176+42265488+42633616+43617324+44778116+45323836
3557.38+45069536+44632664+44606700+44941132+45241108+45272492+45010136+44613428
3552.24+44553088+45315536+46721340+47956080+48499788+48616736+48736464+48834396
3547.09+48699484+48451008+48438484+48818852+49496188+50318656+51133380+51797396
3541.95+52364972+53104004+54051292+54701308+54546788+53847784+53414648+53656748
3536.81+54296244+54962896+55553988+56048176+56464356+56960584+57568972+57957400
3531.67+57859624+57522988+57387732+57594980+58055548+58632924+59047960+59054616
3526.52+58868276+58979548+59477368+60012760+60356716+60552044+60619540+60601484
3521.38+60778060+61440604+62501916+63555420+64189280+64208220+63789912+63483456
3516.24+63799372+64780216+66070200+67222400+67871424+67895128+67572608+67328184
3511.10+67284408+67335720+67564696+68183056+69109136+69989752+70607400+70976480
3505.95+71167016+71272528+71434944+71743008+72152400+72565168+72889128+73100952
3500.81+73350600+73868048+74647176+75429896+76055976+76610416+77179200+77690080
3495.67+78020632+78126144+78127248+78286808+78686792+78980464+78872704+78746112
3490.52+79236360+80225296+80943864+81077696+81064104+81269696+81591664+81972976
3485.38+82570384+83267992+83597160+83362152+82958744+82949072+83524712+84418768
3480.24+85231760+85855688+86525744+87357528+88030912+88192264+87986176+87866512
3475.10+88056960+88482056+89003856+89461616+89723056+89918248+90342752+90998936
3469.95+91559824+91849240+92021736+92257296+92598672+93035456+93429472+93562784
3464.81+93502536+93587560+93831192+93811216+93449192+93354184+93997936+95025512
3459.67+95755904+95964768+95895312+95811432+95807712+95886312+96094448+96583224
3454.53+97386800+98174408+98481968+98248024+97870592+97774392+98147976+98930208
3449.38+99723112+99949584+99460208+98813448+98680744+99169176+99915344
3444.88+100566936+100950688+101047784+101024528+101145512+101524184+102037704
3440.38+102476208+102723552+102876080+103165048+103665000+104123320+104263936
3435.89+104137944+104016792+104061136+104261088+104539992+104760064+104766032
3431.39+104598608+104527232+104778416+105276920+105730904+105922464+105903744
3426.89+105848200+105755200+105478104+105106976+105040296+105461376+105988312
3422.39+106074128+105609520+104989352+104727360+105076232+105822152+106433040
3417.89+106534872+106231000+105885520+105689120+105556832+105372232+105230552
3413.39+105416120+106054280+106816952+107136160+106797976+106162056+105765744
3408.89+105855880+106279872+106681368+106798720+106684712+106594648+106694640
3404.39+106938656+107157760+107116192+106637336+105886512+105362208+105415128
3399.89+105886760+106329472+106431296+106175816+105755952+105439304+105394432
3395.39+105563776+105703992+105614120+105392192+105380056+105692208+105984728
3390.89+105948632+105759424+105666192+105488272+105029632+104565888+104373960
3386.39+104203360+103755416+103257064+103118752+103425232+104017648+104632448
3381.89+104873848+104548672+103987800+103678880+103740928+104002416+104233592
3377.39+104196296+103906424+103811168+104200880+104636648+104570600+104202000
3372.89+104127784+104470360+104918456+105257448+105403480+105255968+104833440
3368.39+104330968+103895272+103525056+103137944+102636640+102067896+101732048
3363.89+101859872+102252296+102531544+102620672+102669448+102713640+102737776
3359.39+102759320+102634656+102127424+101394040+101023048+101328096+101898360
3354.89+102134104+101993520+101930280+102209976+102616336+102847472+102866288
3350.39+102716120+102311824+101712256+101293704+101325992+101570456+101603864
3345.89+101347032+101004000+100650408+100173976+99566264+99057216+98939592
3341.39+99270384+99759944+100019680+99938088+99724232+99572816+99466024
3336.89+99369248+99444520+99826832+100294640+100414712+100098192+99724472
3332.39+99593336+99538200+99289416+98933544+98733624+98720280+98718296+98643552
3327.25+98577336+98642824+98874728+99135072+99195120+98998520+98726712+98546464
3322.11+98455792+98428728+98503344+98702616+98994944+99295728+99434016+99247160
3316.96+98762040+98169336+97665240+97480256+97839464+98663824+99555016
3312.46+100268312+100866224+101261168+101093800+100285368+99282128+98578456
3307.96+98354616+98641088+99432904+100536512+101520104+101886976+101348136
3303.46+100152224+99072664+98744376+99028800+99345280+99445136+99475304
3298.96+99504336+99445016+99350104+99391128+99553408+99580976+99235048+98553624
3293.82+97896768+97685232+98010024+98564120+99009032+99273848+99463440+99658224
3288.68+99825584+99746728+99149400+98127960+97238648+96850304+96656536+96201296
3283.54+95598392+95288672+95364032+95531768+95500200+95111456+94424680+93834504
3278.39+93652872+93542584+92940360+91977168+91237696+90763032+90182944+89624184
3273.25+89490264+89601304+89546832+89486696+89586176+89249384+88046144+86765792
3268.11+86347576+86380728+85860352+84830928+84066904+83616776+82865360+81763144
3262.97+80997496+80969208+81237248+81057240+80197264+79143384+78512416+78306480
3257.82+77998264+77349808+76718672+76450632+76414600+76280104+75827720+74941696
3252.68+73719216+72608336+72046592+72001608+72146056+72294776+72366576+72188480
3247.54+71684376+71033128+70435920+69938848+69588232+69469040+69559736+69761088
3242.40+69966984+69940072+69374960+68321616+67285864+66705472+66543564+66466868
3237.25+66159516+65473148+64553508+63769276+63334916+63155572+63117836+63177660
3232.11+63136644+62761752+62156488+61559900+60901436+60107252+59654080+60137060
3226.97+61320340+62261756+62390080+61968516+61508488+61192336+60924100+60599060
3221.83+60160924+59568808+58850720+58152608+57649912+57466852+57666368+58178268
3216.68+58647568+58563792+57811700+56927928+56545500+56680344+56829588+56598468
3211.54+55990864+55280716+54889188+55153944+55891128+56357708+55987720+55109112
3206.40+54609492+54888224+55407020+55375956+54648756+53741880+53126104+52795952
3201.25+52512328+52219688+52132928+52456936+53051256+53433724+53220388+52510032
3196.11+51691360+51039432+50667200+50641756+50832028+50872300+50587376+50260552
3190.97+50226436+50461992+50784276+51109384+51292944+51077664+50477908+49953784
3185.83+49965472+50462356+50928128+50863980+50251512+49594280+49386664+49557888
3180.68+49653812+49512824+49396780+49465464+49533904+49428832+49223636+49037744
3175.54+48928720+48998592+49319540+49742992+50033576+50138684+50092032+49839284
3170.40+49422688+49128220+49153036+49310028+49333164+49285932+49427148+49822652
3165.26+50290928+50599800+50633676+50487068+50404248+50515644+50695048+50792836
3160.11+50865428+51013148+51165464+51173780+50986016+50672140+50377240+50257656
3154.97+50354092+50550728+50689384+50655024+50403644+50053460+49835064+49738408
3149.83+49426304+48749592+48112612+47988948+48285300+48506892+48364896+47952348
3144.69+47524588+47316824+47417692+47672180+47819660+47750196+47521820+47209464
3139.54+46916528+46802564+46886684+46902808+46549880+45847692+45118584+44651300
3134.40+44461260+44329056+44058660+43717288+43556416+43632588+43689780+43562428
3129.26+43441092+43472208+43382468+42886884+42232944+41883616+41863448+41866684
3124.12+41799344+41734652+41548144+41083136+40571340+40459664+40901484+41637072
3118.97+42212060+42219860+41593508+40747084+40182240+39980524+39916252+39904256
3113.83+40015184+40186800+40220020+40014580+39647056+39308128+39189688+39308012
3108.69+39461944+39462060+39284392+38936896+38412956+37879572+37653532+37868668
3103.55+38302960+38540092+38260428+37518904+36833228+36731096+37148496+37532444
3098.40+37554000+37389916+37338424+37483220+37741692+38000564+38221608+38510616
3093.26+38916520+39182616+38966384+38333512+37703840+37339736+37188848+37204176
3088.12+37466688+37923772+38269408+38217416+37848064+37558072+37581548+37662400
3082.98+37428720+36986596+36794072+36958460+37101436+37008036+36965884+37282496
3077.83+37809252+38168532+38210584+38026196+37653176+37031860+36253580+35669568
3072.69+35586884+35897288+36158068+36093676+35880172+35845948+36006792+36058972
3067.55+35873112+35724012+35829916+35900400+35533520+34930216+34687656+34944088
3062.41+35235732+35183692+34816468+34311436+33918428+33958360+34393708+34657756
3057.26+34387844+33957408+33813708+33786448+33527298+33154164+32950182+32877888
3052.12+32799146+32774656+32861398+32937396+32898678+32770230+32593646+32392226
3046.98+32219018+32130154+32198712+32520648+33010764+33333070+33266742+32984832
3041.83+32736542+32514322+32248400+32036988+31956610+31891516+31712976+31402396
3036.69+30971888+30543030+30475480+31022386+31868468+32356388+32240880+31904538
3031.55+31798364+31974884+32256884+32569278+32877410+33015662+32865698+32565572
3026.41+32330942+32177566+32045944+32036868+32273248+32656962+32957828+33018172
3021.26+32772738+32267394+31753460+31519056+31617090+31932122+32393540+32879920
3016.12+33146996+33142338+33142456+33295062+33327456+33019008+32641914+32603916
3010.98+32880042+33098236+33023070+32766286+32579070+32559834+32608578+32682060
3005.84+32943968+33479366+33995184+34097404+33808088+33508772+33460722+33679824
3000.69+34155400+34824960+35387196+35529812+35359672+35270784+35370204+35387196
2995.55+35232500+35222452+35553256+35963712+36193616+36419484+36889856+37480460
2990.41+37980440+38457892+38966624+39274328+39293504+39404992+39923564+40582976
2985.27+40964712+41113736+41369324+41842684+42381220+42873676+43334056+43782532
2980.12+44170900+44445160+44665360+45023368+45624468+46325732+46924948+47466088
2974.98+48144036+48975704+49759740+50333000+50711204+51033648+51447448+51985844
2969.84+52557580+53119224+53768564+54523352+55158424+55480624+55674988+56130624
2964.70+56971348+57880316+58372296+58184564+57535336+57034732+57171180+57857440
2959.55+58570940+58925904+58946004+58824568+58658220+58439836+58150796+57757128
2954.41+57221504+56563396+55887260+55326284+54955652+54730668+54512596+54235604
2949.27+54031360+54099240+54426468+54787572+55015580+55131956+55185612+55154068
2944.13+55043380+54972324+55085912+55461884+56038496+56573076+56771292+56636688
2938.98+56539936+56787260+57265296+57689732+58010404+58337076+58664156+58922396
2933.84+59123756+59220872+59049776+58625772+58258636+58147408+58136516+58092584
2928.70+58187348+58528808+58827708+58777712+58480876+58199812+57977128+57759064
2923.56+57579376+57382040+56971464+56373788+55922080+55740988+55485336+54826240
2918.41+53910588+53088552+52485892+52073320+51886912+51909836+51907904+51652992
2913.27+51209004+50814060+50562548+50343848+50039960+49647544+49215688+48732972
2908.13+48096476+47238348+46318756+45675820+45423880+45235696+44760928+44129320
2902.99+43778084+43885384+44268240+44696492+44983328+44934640+44583380+44348524
2897.84+44598288+45128328+45370132+45039592+44372440+43795388+43507524+43334776
2892.70+42960508+42311104+41639236+41210808+41089736+41242848+41578508+41882772
2887.56+42025260+42162716+42419404+42527228+42197772+41673556+41434008+41517660
2882.42+41611992+41638996+41795988+42142068+42563852+43028608+43495748+43703352
2877.27+43388960+42697500+42069676+41750376+41673680+41778828+42093924+42462508
2872.13+42533832+42188644+41698164+41331648+41100892+40957992+40890688+40709652
2866.99+40145184+39292304+38582392+38265820+38250120+38418112+38692292+38840172
2861.84+38636080+38208548+37895980+37798708+37721088+37495312+37113404+36617844
2856.70+36074048+35645628+35552420+35858396+36323844+36564452+36431932+36191700
2851.56+36235628+36614852+36952956+36858364+36371484+35890468+35645272+35473096
2846.42+35256908+35242672+35552904+35714436+35167784+34054008+33027374+32487796
2841.27+32381712+32501056+32623756+32585878+32475490+32480748+32492214+32238728
2836.13+31798486+31479288+31289330+31043876+30864338+31000422+31272020+31239306
2830.99+30839032+30407216+30149820+29971798+29761342+29563074+29457982+29420648
2825.85+29330480+29137142+29010372+29214784+29752032+30272368+30460918+30395402
2820.70+30409484+30663456+31006150+31194414+31120992+30838316+30511282+30361868
2815.56+30489204+30694130+30633138+30220816+29757284+29568562+29666858+29862748
2810.42+30024296+30090038+29935050+29492220+28994868+28878002+29315568+29992436
2805.28+30447672+30519758+30350410+30128936+29994826+30001146+30017616+29828030
2800.13+29460848+29225994+29338826+29709684+30122374+30371654+30257450+29771002
2794.99+29245914+29032792+29080852+29123664+29147638+29358146+29776732+30176548
2789.85+30390628+30452448+30462830+30487414+30584204+30779588+30977624+31017728
2784.71+30897162+30818502+30908146+31042562+31109414+31227964+31494336+31706290
2779.56+31623896+31298522+30959954+30797850+31003286+31673690+32512648+32990332
2774.42+32990452+32933456+33152972+33523708+33798164+33940664+33988728+33914008
2769.28+33755848+33679824+33789556+34015392+34262888+34568420+35019096+35586280
2764.14+36122280+36510580+36728580+36813108+36883392+37133764+37625384+38135224
2758.99+38443872+38688212+39164520+39838060+40353152+40525516+40528276+40580576
2753.85+40713376+40900048+41224608+41807152+42650188+43614688+44513428+45215136
2748.71+45694464+46039424+46391060+46841076+47357508+47849284+48296740+48774764
2743.57+49344244+49989216+50692876+51523560+52572784+53791392+54953476+55855824
2738.42+56536428+57230456+58118604+59182972+60282204+61325072+62376732+63585396
2733.28+64951340+66255032+67335960+68346552+69555112+71010472+72591376+74222000
2728.14+75832360+77284296+78598384+80085880+82011080+84247792+86426768+88344024
2723.00+90105208+91920648+93839200+95745920+97643872+99768984+102251928
2718.50+104847816+107299584+109758128+112478752+115309032+117937536+120481088
2714.00+123336520+126544160+129731416+132668688+135518048+138522160+141732912
2709.50+145084880+148578208+152296368+156249248+160257088+164071680+167657584
2705.00+171226592+174913792+178588448+182130528+185749072+189750240+194016160
2700.50+198067664+201732160+205456176+209732288+214439792+219025424+223189920
2696.00+227112288+231094384+235267920+239657456+244268512+248986128+253508832
2691.50+257569296+261281248+265146544+269565760+274418368+279293248+284043520
2687.00+288866208+293868832+298854176+303596320+308117376+312598912+317147552
2682.50+321690080+326086304+330344224+334680864+339301824+344169280+349052032
2678.00+353730528+358106368+362265344+366485312+370994432+375667456+380165120
2673.50+384409664+388667744+393149376+397772160+402366944+406878048+411352960
2669.00+415888672+420561920+425301152+429932064+434397984+438759648+442975680
2664.50+446997984+451077280+455602464+460527712+465331680+469664896+473700224
2660.00+477762112+481972576+486343904+490904768+495598784+500280608+504891168
2655.50+509461280+513960832+518313280+522546368+526790080+531105344+535407552
2651.00+539570752+543620480+547791616+552306688+557068288+561729600+566108928
2646.50+570344768+574557568+578627584+582495104+586468992+590967744+595988352
2642.00+601014784+605534272+609588032+613700992+618286144+623224128+628074048
2637.50+632541824+636681472+640770816+645077056+649625536+654194624+658606336
2633.00+662919680+667204608+671328064+675234560+679209856+683584128+688318848
2628.50+693128832+697834048+702350976+706547136+710367104+713985536+717677120
2624.00+721609216+725798336+730144384+734460032+738578560+742482368+746322560
2619.50+750314432+754568064+758963712+763218880+767159936+770907072+774752256
2615.00+778858112+783094336+787169024+790950720+794616192+798394112+802199808
2610.50+805732032+808947328+812207872+815887424+819985088+824205376+828284160
2606.00+832141760+835804864+839308864+842744512+846254272+849848960+853316928
2601.50+856513856+859650368+863033984+866608384+870075520+873354688+876602112
2597.00+879837248+882899072+885742528+888506304+891315904+894180032+897049216
2592.50+899865664+902613888+905353024+908152512+911026112+913967680+916954240
2588.00+919880896+922644032+925268672+927815872+930242240+932541440+934902208
2583.50+937495488+940205312+942726912+944869184+946680448+948388736+950242240
2579.00+952303552+954424576+956508928+958659904+960975936+963380608+965735232
2574.50+967912320+969760512+971245504+972637056+974292352+976271936+978364672
2570.00+980382464+982194304+983653760+984766720+985798336+987000128+988352832
2565.50+989751104+991268608+993062400+995101248+997133888+998885824+1000263680
2561.00+1001351680+1002295680+1003222400+1004277632+1005590976+1007075136
2557.15+1008396288+1009323392+1010037184+1010907008+1012054272+1013313856
2553.29+1014531264+1015706112+1016883648+1018055424+1019160640+1020114880
2549.43+1020893440+1021643904+1022613760+1023897984+1025285632+1026433536
2545.58+1027210816+1027850176+1028714176+1029860032+1030920576+1031544576
2541.72+1031882112+1032448000+1033526400+1034909440+1036210368+1037198528
2537.86+1037855936+1038360896+1039056448+1040190528+1041581952+1042729280
2534.01+1043339776+1043644224+1044097024+1044858304+1045699008+1046412480
2530.15+1047147648+1048187648+1049483520+1050650944+1051486656+1052222336
2526.29+1053135872+1054121664+1054848384+1055201344+1055393280+1055750272
2522.43+1056533376+1057793152+1059212672+1060245376+1060631744+1060702976
2518.58+1061011200+1061707200+1062472640+1063019136+1063444288+1064031040
2514.72+1064838400+1065667968+1066369856+1067003776+1067651456+1068269952
2510.86+1068844992+1069482944+1070211968+1070864256+1071329856+1071742208
2507.01+1072224960+1072631616+1072720704+1072473920+1072119680+1071959168
2503.15+1072194944+1072779200+1073400768+1073741824+1073720640+1073425280
2499.29+1072965376+1072524160+1072339200+1072452352+1072611008+1072536128
2495.44+1072163392+1071574656+1070856128+1070118656+1069502272+1069078400
2491.58+1068799552+1068562304+1068266816+1067812032+1067123392+1066196672
2487.72+1065084224+1063838272+1062534656+1061328384+1060384704+1059668928
2483.87+1058894528+1057777728+1056283584+1054611200+1053021952+1051670592
2480.01+1050484928+1049240448+1047838464+1046392512+1044918912+1043230144
2476.15+1041314688+1039485248+1037907584+1036332480+1034513792+1032537280
2472.29+1030543232+1028519360+1026518976+1024703296+1023038592+1021256704
2468.44+1019198144+1016958784+1014702464+1012524800+1010462208+1008496576
2464.58+1006546816+1004481408+1002174720+999676096+997295552+995315968
2460.72+993622272+991849984+989843648+987710400+985531008+983300032+981039872
2456.22+978768320+976499328+974368064+972529088+970884352+969149312+967192640
2451.72+965095744+962982016+960960000+959089152+957274624+955365824+953419264
2447.22+951615360+949950080+948246016+946422272+944545024+942714048+941030720
2442.72+939530688+938073600+936484864+934807616+933213056+931742528+930327360
2438.22+928952000+927631680+926369408+925222464+924217152+923181184+921891584
2433.73+920388672+918943232+917751936+916808320+915983424+915113792+914138560
2429.23+913187584+912370112+911513024+910341568+908900928+907588096+906757312
2424.73+906403520+906186688+905703552+904797632+903664896+902625408+901824064
2420.23+901184320+900558912+899887488+899276096+898896192+898704704+898360128
2415.73+897563968+896379584+895092608+893928512+893014592+892398656+891954048
2411.23+891475328+890931072+890425088+889913728+889229056+888366336+887450240
2406.73+886465472+885336512+884213440+883348032+882704320+881982656+881018048
2402.23+879911744+878774208+877571648+876266240+874932672+873655040+872415936
2397.73+871149888+869841920+868508288+867154944+865814848+864564160+863397376
2393.23+862150912+860696704+859148288+857712256+856386432+854977152+853394112
2388.73+851728256+850050752+848340288+846627520+844990080+843350912+841466304
2384.23+839265152+837049792+835180544+833648768+832120064+830315712+828178304
2379.73+825782912+823307712+821027072+819060096+817162880+814963776+812380224
2375.23+809661248+807087680+804741056+802495360+800134016+797537728+794797184
2370.73+792092672+789490624+786929216+784348608+781747392+779136448+776487488
2366.23+773733440+770890624+768182784+765842752+763738816+761439360+758757504
2361.73+755977024+753423424+751107904+748890944+746699712+744470976+742142464
2357.23+739801152+737637568+735707072+733870848+731989376+730046336+728095744
2352.73+726186432+724340608+722549696+720759936+718844032+716653888+714126400
2348.23+711317120+708298368+705123200+701926656+698915328+696169536+693563392
2343.73+690935296+688220864+685406272+682532544+679740608+677149440+674682496
2339.23+672171904+669603712+667098880+664700672+662319424+659854976+657245888
2334.73+654476544+651679744+649115136+646886272+644787968+642572864+640247040
2330.23+637937472+635645568+633343936+631120832+628985664+626730432+624239040
2325.73+621712256+619348928+617059648+614752960+612588160+610679104+608830656
2321.23+606828736+604718592+602570048+600253696+597676096+595029632+592620224
2316.73+590545920+588628736+586614912+584425344+582201344+580077504+577977728
2312.23+575758656+573445184+571124736+568748608+566250752+563763968+561488768
2307.73+559408576+557334208+555193536+553097600+551117312+549097856+546772224
2303.23+544091520+541352704+538914432+536818304+534803904+532670368+530458656
2298.73+528292736+526172608+523999008+521735328+519484320+517352608+515267968
2294.23+513038368+510608608+508131616+505739392+503414144+501145440+499025024
2289.73+497064192+495088416+492948768+490743296+488678720+486754528+484725888
2285.23+482427104+480017856+477762400+475633152+473360032+470876256+468450816
2280.73+466308768+464351968+462353696+460213248+457967168+455754880+453766944
2276.23+452009600+450199712+448119712+445960768+444031808+442266400+440340032
2271.73+438173728+436006528+434022336+432169248+430317344+428397696+426394688
2267.23+424320128+422209344+420115744+418075904+416055840+413955616+411764448
2262.73+409662240+407829760+406177344+404441600+402546080+400648736+398841312
2258.23+397032832+395167360+393315616+391460288+389418432+387114240+384790336
2253.73+382794688+381200448+379744544+378118592+376253472+374315776+372481088
2249.24+370740704+368979008+367184384+365476512+363900064+362326752+360622272
2244.74+358777568+356859552+354964544+353230464+351712448+350253312+348647680
2240.24+346888544+345073696+343216096+341361024+339680384+338176672+336534784
2235.74+334581120+332610944+330970016+329582464+328183232+326710592+325183648
2231.24+323485312+321583424+319749568+318281952+317097056+315797984+314130656
2226.74+312277952+310660320+309450784+308368000+307018784+305336064+303575680
2222.24+301974880+300558208+299214240+297841376+296429216+295023360+293621280
2217.74+292150752+290588096+289018496+287538368+286148096+284733536+283160032
2213.24+281457920+279902080+278721984+277754368+276607840+275163904+273634336
2208.74+272175584+270763360+269403936+268159648+266977520+265725792+264360032
2204.24+262925696+261475760+260054688+258668896+257276576+255910400+254702576
2199.74+253672400+252638768+251475776+250241040+248997056+247733472+246491744
2195.24+245338768+244222608+243081344+242009264+241079184+240121968+238924016
2190.74+237532320+236168608+234936400+233765008+232560736+231316240+230101168
2186.24+228981632+227947680+226936640+225904560+224837680+223738080+222654016
2181.74+221645312+220668816+219606608+218452688+217325440+216258352+215148720
2177.24+213959680+212827264+211873712+211030336+210131776+209122672+208088224
2172.74+207085520+206045104+204914864+203813440+202899376+202128464+201292224
2168.24+200304144+199300192+198449952+197749248+197020448+196090320+194973808
2163.74+193865632+192914720+192055936+191141248+190141424+189109408+188049456
2159.24+186961248+185949888+185146432+184520352+183851136+182923200+181756784
2154.74+180617488+179754288+179161696+178646080+178049600+177310048+176413584
2150.24+175462576+174682768+174177216+173746080+173106160+172210944+171230576
2145.74+170313952+169493024+168730432+167958160+167108544+166161232+165167616
2141.24+164242704+163514928+163002784+162567184+162063168+161495520+160921792
2136.74+160295968+159536016+158677312+157815760+157006528+156301904+155773296
2132.24+155381264+154942400+154311856+153519920+152665968+151789920+150914528
2127.74+150137360+149569616+149180192+148771856+148188768+147494768+146834320
2123.24+146185600+145431088+144627168+143967568+143483312+143015760+142506496
2118.74+142056960+141690368+141274480+140707488+140034288+139368384+138809760
2114.24+138379984+137955584+137347600+136541920+135766544+135263536+135036512
2109.74+134856432+134466640+133775968+132908512+132077632+131434136+131034856
2105.24+130843968+130691912+130329312+129665144+128875792+128167504+127523888
2100.74+126815576+126067568+125466728+125142024+125014688+124856184+124488768
2096.24+123966104+123517928+123240696+122947384+122448144+121826904+121270096
2091.74+120763552+120190176+119616464+119215832+118983384+118753112+118462824
2087.24+118200040+118018992+117840096+117521136+116970152+116258888+115619912
2082.74+115190056+114788312+114150184+113366264+112827144+112678320+112597320
2078.24+112197352+111465680+110716496+110252168+110108016+110000784+109551400
2073.74+108684368+107788168+107317952+107285448+107318440+107173640+106944736
2069.24+106757904+106524824+106125216+105619320+105103120+104507664+103763600
2064.75+103068232+102718600+102685664+102615472+102289680+101860368+101539536
2060.25+101309784+101057688+100786080+100538240+100283280+99972328+99605944
2055.75+99181776+98728304+98357584+98130312+97909864+97543240+97072728+96599152
2050.60+96093576+95535848+95078400+94843008+94737464+94631672+94518872+94362912
2045.46+94021232+93452632+92795632+92174912+91626168+91224152+91048656+91009400
2040.32+90912184+90703488+90478944+90267088+89982944+89609672+89276072+89074928
2035.18+88881664+88452064+87706296+86868448+86278328+86083632+86135320+86154704
2030.03+85988624+85718960+85538792+85500504+85436072+85154584+84660776+84131776
2024.89+83723688+83464272+83261136+82986328+82577000+82113368+81758128+81585184
2019.75+81468336+81185080+80654688+80071320+79762328+79869888+80182328+80274136
2014.60+79849704+79003936+78181168+77811960+77928824+78171624+78189472+77944960
2009.46+77595472+77236392+76867488+76510008+76211344+75973168+75763240+75574704
2004.32+75397296+75183520+74913856+74673040+74565272+74562600+74498888+74250192
1999.18+73867936+73517232+73298032+73172536+73048392+72891208+72699168+72402296
1994.03+71863656+71059440+70224632+69747088+69806992+70144992+70296960+70073392
1988.89+69690480+69428512+69360952+69458584+69690480+69881264+69753304+69303512
1983.75+68874504+68696720+68641600+68571520+68555328+68567384+68361272+67877744
1978.61+67433360+67276504+67256080+67112728+66863856+66679460+66596316+66553040
1973.46+66554740+66611144+66586960+66315432+65855368+65434520+65118940+64716476
1968.32+64108788+63507120+63253372+63474956+64012524+64561280+64828804+64692548
1963.18+64277420+63828868+63512824+63355300+63292812+63236384+63159568+63132636
1958.04+63183232+63184084+62990672+62612532+62143140+61662708+61306524+61240092
1952.89+61415260+61542440+61443752+61260216+61192212+61189540+61060820+60769816
1947.75+60441048+60129908+59783080+59425780+59173404+58951696+58455212+57599340
1942.61+56847364+56797904+57473144+58283084+58685100+58683528+58641516+58777828
1937.47+58950004+58914404+58669360+58449036+58422288+58547692+58711484+58841636
1932.32+58870328+58737640+58477604+58174764+57837472+57458020+57170816+57169124
1927.18+57440480+57734256+57818716+57614828+57097148+56304984+55515312+55147060
1922.04+55387196+56064136+56815804+57058436+56069572+53808300+51614036+51219248
1916.90+52767948+54669536+55607416+55745336+55804688+55939724+55968616+55939968
1911.75+55936584+55792844+55422608+55089292+55073468+55309120+55534652+55593876
1906.61+55472888+55228024+55003980+54997940+55262472+55591704+55690456+55464064
1901.47+55055704+54672072+54453772+54429728+54491580+54508128+54520936+54661796
1896.33+54832160+54758696+54423808+54104916+53952380+53891512+53901528+53926044
1891.18+53596372+52636996+51525856+51175468+51881244+53022160+53826532+54037640
1886.04+53876412+53696236+53687660+53802740+53952256+54194300+54573968+54903812
1880.90+54937520+54670868+54296244+53952132+53689472+53588764+53748640+54147916
1875.76+54581096+54807512+54775128+54640056+54549448+54495684+54321852+53676428
1870.61+52137992+49810600+47733100+47100416+48024232+49588256+51023756+52192052
1865.47+53072260+53512816+53580548+53645392+53948512+54372104+54685600+54834332
1860.33+54919520+55005064+55033952+54943564+54801104+54734776+54772472+54816820
1855.19+54780084+54721488+54809564+55082528+55308396+55243132+54965432+54711580
1850.04+54482520+54105044+53565580+53088676+52969532+53163644+52699152+50113972
1844.90+45565420+42047352+42706152+46848896+50881580+52775312+53326144+53779560
1839.76+54257348+54437944+54224012+53658200+53067068+53025660+53618952+54250828
1834.61+54463792+54369688+54223412+54059748+53590572+52237544+49889424+47777044
1829.47+47640636+49722984+52534168+54463792+54656368+53013596+50564352+49222432
1824.33+49975476+51805844+53224612+53950324+54466812+54900432+55017516+54750964
1819.19+54258800+53777628+53523676+53520180+53604460+53717844+53945848+54239840
1814.04+54411964+54370048+54071944+53388568+52384160+51599676+51643948+52455968
1808.90+53300552+53617260+53611704+53798760+54216644+54480588+54445312+54239960
1803.76+53756008+52761672+51521752+50618724+50144588+49768056+49561504+50021520
1798.62+51187772+52355200+52810556+52524996+52114828+52109400+51996348+50325888
1793.47+46510532+42385432+40895368+42873552+46398280+49448956+51518252+52747316
1788.33+53220868+53321680+53429860+53132864+51933124+50593044+50463560+51605464
1783.19+52819972+53213388+52677424+51488940+50392796+50309736+51260016+52367744
1778.05+53107508+53448816+53101840+52044244+51119388+50401832+47963544+42476076
1772.90+36286860+33749988+36403208+41742936+46409588+48444384+47640276+45746780
1767.76+45502044+47901420+51139532+53072984+53480936+53275920+52556972+50458012
1762.62+46910512+43862432+43848372+47023752+50781260+52765532+52801744+51663128
1757.48+49830844+48289512+48591440+50770772+52942732+53837892+53646120+52018184
1752.33+47994248+42894932+40493968+42405836+45841076+47751280+48283732+49116296
1747.19+50720004+52395628+53518972+53803592+53227992+52322496+52088164+53140588
1742.05+54663368+54539536+51487136+47305152+45741132+48204256+52286776+55241080
1736.91+56135468+54083172+47473068+36824244+27036266+24409064+30491828+40673184
1731.76+49042080+52808148+52997056+52538880+53417184+55262588+56637168+56970016
1726.62+56821968+56793668+56814836+56566788+56181044+56178752+56820760+57770192
1721.48+58390452+58151524+56574768+52848096+46232136+37975644+32454588+33650412
1716.34+39718876+44955316+47056128+48622880+51959908+55863084+58444680+59678912
1711.19+60086776+59735112+59249088+59561304+60298076+60189512+58891032+57185096
1706.05+55975392+55834184+56851968+58715844+61155724+63110560+61315612+52542492
1700.91+39067188+30254826+34249740+48055416+61421808+66775244+62547520+53234872
1695.77+48180648+54204808+67562016+79305960+85686672+88884000+91470080+93691552
1690.62+95523144+97995936+101508464+105255344+109017920+113022376+115290976
1686.12+112128936+103118000+94388320+94238912+104170896+118185936+130435248
1681.62+138904208+144104192+147601152+151078800+155362320+160206608+164708176
1677.12+167294400+166462960+163271216+162394288+167960064+178121360+187099792
1672.62+191941952+194338672+196597392+198320272+198462832+198865760+203062848
1668.12+211646064+221332224+228961056+234282928+238691616+242674864+245311600
1663.62+246223296+247324464+251496048+259110032+267478784+274321344+279797792
1659.12+284821632+289435424+293569856+297564544+301118624+302889312+301155296
1654.62+294214880+282011584+269925920+268637920+283340224+305601824+323479072
1650.12+332556640+334900160+333983168+332009632+329661376+327137568+325951936
1645.63+328955104+336666912+345186400+350398976+352230496+353076672+354045504
1641.13+354726368+355079776+355046176+353609696+350295392+345957376+340391840
1636.63+331715392+320732736+313438656+314666240+320845952+324554016+322896224
1632.13+317935776+312254560+306659232+300831136+294007104+285515328+275892032
1627.63+266925024+259922336+254407344+248570832+240564672+230075680+219333408
1623.13+211553440+207562768+205161552+201987984+197497600+192390960+187042272
1618.63+180160592+169473952+155531840+144497680+143102800+149656448+156162496
1614.13+158091920+156664224+154288592+151777856+149453984+147804800+146668224
1609.63+145506112+144288288+143162080+142019456+140945392+140222160+139747296
1605.13+139225872+138654304+138047232+137310304+136717616+136626160+136678816
1600.63+136318880+135823808+135717568+135724240+135358704+134852272+134561120
1596.13+134301712+133974792+133918464+134209400+134540384+134915952+135559072
1591.63+136272688+136696192+136882608+137065504+137403024+138200368+139620256
1587.13+141186736+142430576+143620816+144964080+145870624+146030720+146208128
1582.63+147073744+148359264+149707776+151092496+152281024+153123008+153665248
1578.13+152577472+147296464+138299680+132020208+135208304+145918336+156172432
1573.63+161643504+163752928+165021296+165391360+163284752+158939296+155540736
1569.13+156427968+161325904+166814128+170109744+170803792+169870720+168662336
1564.63+168440640+169606000+171354272+172146080+169831792+162172384+149246352
1560.13+135276880+125754784+122571440+125016832+133216904+145476624+155657584
1555.63+158285072+154335488+150158704+150800960+155388640+159748944+161104144
1551.13+159531712+157029440+155742256+156296816+157645808+158361968+157455248
1546.63+154259376+148968800+143643456+140838992+139926064+136972176+129947936
1542.13+121807536+116104072+111337976+104125304+96805744+96603456+105634192
1537.63+117353880+124886112+126739768+124561000+119651808+113114232+107638992
1533.13+106340632+109213160+112974976+114979528+115185576+114289520+112293264
1528.63+109656512+107694096+106574808+104824144+101985480+99952792+100344608
1524.13+101783768+101067464+96262984+88467056+81673600+80549528+86440152
1519.63+95447792+101641856+102086584+98934640+97007192+98753640+102426456
1515.13+105501552+107227864+107420816+105780248+103312416+101998720+102115544
1510.63+101962584+100462320+97697328+93101736+85585672+75952776+67927488
1506.13+66053672+72083288+83131944+93854360+100572008+103155024+103674168
1501.63+103997952+104363056+103674784+101406400+99127416+98705576+98948856
1497.13+97057184+93917464+94296480+100077168+107272536+111858656+113818504
1492.63+114436104+113451776+110557776+107566264+107153656+109949472+113949464
1488.13+116868784+118539560+120715568+124535336+129027472+132677728+135320432
1483.63+137641424+139818304+141645536+143405728+145685504+148601536+151802480
1479.13+154985616+157796800+159527488+159874096+160075728+162001408+165420512
1474.63+167662480+166951472+164865824+164798480+168714448+176002128+184511952
1470.13+191898832+196886016+199901728+202156064+204066640+204888272+203742416
1465.63+201050304+199252096+201123696+206360576+211536176+214412032+215934464
1461.14+217306560+217740336+216329824+213399040+208682384+201359104+193839696
1456.64+192302080+199749840+211473104+221009744+226258672+228510896+229245200
1452.14+229208896+229073200+229400176+229961600+229797856+228313504+226268416
1447.64+225326000+226329184+228378000+229942576+230359104+229963840+229289696
1443.14+228627536+228155696+227947248+227689520+226859520+225363408+223295328
1438.64+219697664+212921280+203662800+196637904+196338112+201065008+204991536
1434.14+205045392+202552560+199746592+197176544+194272256+190548208+186155600
1429.64+182183504+179821984+178695360+177238688+174919312+172464000+169972176
1425.14+166743664+162962832+159729472+157522736+156033280+154643056+151734960
1420.64+145306992+136243200+129436632+128856584+132561320+135806688+136730208
1416.14+136522016+136394448+136470752+136570000+136489648+135942800+134996752
1411.64+134160208+133716856+133507608+133460328+133740504+134303728+134721408
1407.14+134509168+133406624+131558120+129734048+129022568+129757904+130987760
1402.64+131514280+131080952+129972544+127979912+124829896+121399824+119230320
1398.14+118649152+118431008+117297256+114766272+111081616+107438312+105668040
1393.64+106377472+107993704+108661904+108134856+107140880+105944784+104187128
1389.14+101411856+97493480+93307968+90726864+90797872+92337224+93429216
1384.64+93515344+93166296+92802512+92528472+92420840+92255064+91607216+90549192
1379.50+89622584+89109088+88943488+89100856+89395096+89219632+88119392+86471944
1374.35+85281584+85421832+87023680+89366800+91488056+92985320+93959480+94371552
1369.21+94133520+93727544+93853616+94448848+94832280+94655592+93959248+92641904
1364.07+90744952+88973376+88098120+88077976+88452304+89174632+90346560+91551936
1358.93+92167408+92053008+91476976+90679000+89886512+89416480+89351312+89325616
1353.78+88967712+88364928+87833216+87431976+87020120+86654168+86549304+86668664
1348.64+86688304+86467784+86219904+86135192+86110760+86021032+86003360+86271584
1343.50+86770216+87098728+86753760+85553648+83990864+82983760+83024928+83683840
1338.36+84185864+84263248+84171872+84118048+84086528+84120984+84365536+84756704
1333.21+84945144+84706296+84257120+84015776+84125400+84398288+84618328+84688504
1328.07+84569888+84328992+84183408+84276496+84485488+84647280+84777184+84904776
1322.93+84945272+84880360+84746160+84390800+83620080+82644520+81939160+81627312
1317.79+81426208+81181288+81039856+81087984+81161568+81053936+80755192+80486248
1312.64+80502896+80786656+81055288+81148104+81159368+81094592+80773936+80264576
1307.50+79988600+80180856+80553944+80737448+80769880+80940320+81328480+81685128
1302.36+81730800+81468704+81165984+81076832+81250592+81602696+82015488+82336352
1297.22+82439032+82391488+82469416+82929464+83740248+84546816+84963912+84973856
1292.07+84961464+85265872+85798000+86218056+86378032+86460160+86735824+87314048
1286.93+88090504+88877728+89561464+90138048+90672728+91277568+92029864+92848592
1281.79+93534448+94028264+94469920+94969896+95512776+96130960+96928064+97883064
1276.65+98868168+99888768+101074256+102393288+103593160+104507408+105301080
1272.15+106328984+107778232+109481088+111086704+112384576+113462224+114611448
1267.65+116101472+117986552+120053656+122016304+123748272+125314200+126823848
1263.15+128364528+130037936+131964936+134259696+136959584+139900560+142790608
1258.65+145536992+148347632+151365040+154421408+157353056+160306288+163533952
1254.15+167118656+171020240+175118240+179114736+182698608+185938256+189256336
1249.65+192913520+196753728+200569536+204463264+208657040+213082576+217438160
1245.15+221695280+226251024+231424336+237000560+242506224+247777296+253007904
1240.65+258398944+263997264+269762304+275569440+281274560+286943360+292851232
1236.15+299105376+305451840+311630944+317715328+323924416+330292832+336721120
1231.65+343153984+349514432+355672960+361683616+367834016+374242432+380590848
1227.15+386485120+391920992+397251456+402841824+408840608+415093472+421245984
1222.65+427035200+432456064+437600128+442514464+447248160+451778496+455900256
1218.15+459517760+462990304+466791616+470893568+474840128+478275488+481060160
1213.65+483122048+484609312+485944192+487399968+488831392+489976928+490745728
1209.15+491100288+491007904+490586432+489999808+489138912+487690368+485549408
1204.65+482969760+480273632+477547424+474613600+471219936+467253536+462866496
1200.15+458399744+454113824+449917216+445382048+440117472+434159360+427970144
1195.65+422032576+416427072+410784672+404723648+398306656+391927008+385762272
1191.15+379622880+373381408+367198816+361232352+355469184+349939328+344753568
1186.65+339850176+335004768+330112032+325227552+320386368+315587840+310892256
1182.15+306415520+302269888+298494560+294922656+291247552+287387616+283648736
1177.65+280335936+277409152+274692128+272208224+270061760+268111440+266029824
1173.15+263711504+261432432+259479136+257789312+256140848+254548416+253184768
1168.65+252033488+250920496+249739472+248425408+246981040+245729248+245130368
1164.15+245120112+245093888+244705104+244125408+243449856+242549808+241615504
1159.65+241140416+241187552+241248928+240912928+240239424+239493296+238944176
1155.15+238892704+239512672+240576080+241575520+242226112+242758336+243620848
1150.65+244954976+246526624+248119504+249731168+251384352+253080976+254979120
1146.15+257280336+259930128+262742592+265710160+268871616+272036608+275008640
1141.65+277922720+281067072+284507328+288110464+291785152+295584928+299681664
1137.15+304248544+309280832+314592768+320036672+325591392+331248160+337039232
1132.65+343113440+349548832+356200704+362984128+370081056+377592384+385254304
1128.15+392831392+400533824+408698976+417284800+426015264+434851648+443980448
1123.65+453444352+463079872+472789696+482640448+492713120+503047520+513712416
1119.15+524712224+535805824+546661056+557233088+567782272+578483520+589245824
1114.65+599946432+610579072+621107456+631403136+641406528+651212480+660992384
1110.15+670903936+680973760+690934528+700349248+709037312+717246848+725283008
1105.65+733141888+740690496+748041408+755527168+763306496+771114432+778439744
1101.15+784979776+790932352+796790528+802800704+808746496+814343296+819662400
1096.65+824914944+829979776+834490112+838401024+842168768+846269120+850756992
1092.16+855337600+859730880+863909824+868054656+872239744+876152768+879337088
1087.66+881808704+884179648+887001472+890159104+893029568+895087232+896275712
1083.16+896989184+897757376+898807552+899817024+900131840+899261568+897228864
1078.66+894462656+891394432+888157248+884632000+880653504+876146240+871237760
1074.16+866213696+861096640+855339328+848400832+840509632+832287616+823767360
1069.66+814484288+804362880+793708288+782510656+770587008+758156352+745512320
1065.16+732442880+718737984+704856768+691315776+677841664+663889408+649674752
1060.66+635942336+622880576+609885248+596456448+582929152+570054336+557999744
1056.16+546112704+533791616+521264032+509186048+497793920+486864288+476304288
1051.66+466265280+456721408+447311840+437647360+427615264+417457312+407631616
1047.16+398503584+390079264+382145536+374644064+367704448+361201856+354561536
1042.66+347306144+339715712+332593664+326341888+320625824+315020928+309534048
1038.16+304281056+299096224+293835552+288743232+284144800+279962240+275815264
1033.66+271454208+266915776+262373664+258052384+254213616+251038752+248491104
1029.16+246353520+244398176+242453456+240318544+237790304+234912432+232136208
1024.66+230051648+228882496+228292128+227699920+226744560+225466960+224156880
1020.16+223101760+222454416+222203824+222207520+222310512+222428128+222508624
1015.66+222522960+222606096+223095296+224226000+225825616+227468464+228890144
1011.16+230188464+231706480+233810288+236672464+240170272+244022320+248067648
1006.66+252416368+257336032+262964912+269162528+275780928+283032128+291294976
1002.16+300509088+310105024+319637088+329165888+338966592+349266240+360295808
997.66+372189248+384755296+397635296+410694336+423996480+437447712+450728224
993.16+463561952+475842400+487469120+498185472+507621856+515442912+521313184
988.66+524807648+525579616+523681856+519485088+513252704+505060320+495118368
984.16+483828704+471510080+458327552+444477280+430221632+415862112+401798464
979.66+388402720+375679232+363290240+351050272+339160000+327840704+316974048
975.16+306305600+295906432+286197824+277415776+269261824+261322560+253674512
970.66+246726240+240600768+235051584+229871280+225036832+220558656+216480896
966.16+212859616+209541216+206232448+202920992+199913824+197342784+194982000
961.66+192641536+190436768+188557040+186968768+185470448+183962192+182609648
957.16+181657856+181104480+180687680+180188640+179596448+178990400+178455808
952.66+178080352+177876096+177765760+177705824+177718688+177762784+177750320
948.16+177679200+177598192+177486976+177322784+177191248+177174400+177209232
943.66+177172480+177082624+177116288+177369072+177667392+177768832+177694144
939.16+177622112+177520656+177251024+176954448+176895184+177060896+177378208
934.66+178017952+178968656+179742816+180086304+180490768+181374368+182310704
930.16+182662640+182466928+182197296+182129744+182304784+182711248+183265184
925.66+183890592+184652496+185552592+186348048+186815392+187042048+187297232
921.16+187774640+188513728+189369648+190067136+190458640+190689568+191010992
916.66+191533344+192206224+192876720+193371952+193648192+193869104+194267456
912.16+194974352+195980896+197136800+198161216+198809328+199063200+199090112
907.67+199085424+199192928+199451536+199791984+200222592+200936720+201980048
903.17+202931184+203291344+203099312+202773952+202519104+202321536+202360464
898.67+202843232+203543840+204027152+204255104+204532496+204976528+205436224
894.17+205803632+206070160+206175568+206040656+205707760+205338240+205139792
889.67+205218416+205434128+205514080+205346096+204997648+204505488+203926688
885.17+203462672+203270512+203282224+203366656+203408864+203174096+202538352
880.67+201890464+201738272+201915984+201765872+201075920+200204912+199381456
876.17+198520800+197706496+197256032+197222784+197241984+196955648+196393840
871.67+195848000+195447776+194952304+194065040+192903680+191998032+191766576
867.17+192094432+192467920+192465968+192051808+191348688+190346544+189136160
862.67+188212080+188003296+188146288+187823616+186887232+186099168+186213216
858.17+187257168+188714032+190005808+190741856+190680752+189680640+187971376
853.67+186398688+185904928+186538704+187433296+187810832+187629216+187495856
849.17+188295472+190290512+192315568+192791312+191683296+190256336+189110544
844.67+188124304+187768416+188454224+189187904+188752304+187635040+187326032
840.17+188703424+191825120+195747152+198153424+197189392+193978816+191427664
835.67+190619792+190376192+190050576+190304992+190977712+190544832+188389984
831.17+185913072+184515056+183887376+183260144+183002752+183565408+183820944
826.67+182153072+178856992+175984016+174868192+175005728+175309344+175289312
822.17+174850736+173890064+172579552+171480000+170944240+170708704+170364432
817.67+169893024+169361520+168447552+166850848+164978512+163526064+162465984
813.17+161139840+159439840+158252592+158381456+159471184+160357392+160232848
808.67+159114192+157377744+155462640+154032944+153682400+154249600+155059232
804.17+155936240+157225536+158611824+158862752+157169648+154307152+152196112
##END=
