##TITLE=octarelline 6 front
##JCAMP-DX=4.24
##DATA TYPE=INFRARED SPECTRUM
##DATE=31/1/2005
##TIME=17:32:48
##SAMPLING PROCEDURE=film
##ORIGIN=Vincent
##DATA PROCESSING=no operation
##XUNITS=1/CM
##YUNITS=ABSORBANCE
##RESOLUTION=2
##FIRSTX=4000.283
##LASTX=800.31372
##DELTAX=-0.64282227
##MAXY=0.20187578
##MINY=-0.0096843448
##XFACTOR=1
##YFACTOR=1.8801147e-010
##NPOINTS=4979
##FIRSTY=0.0067719785
##XYDATA=(X++(Y..Y))
4000.28+36018965+36905764+37518052+37491184+36742084+35648264+34863004+34707996
3995.14+34805696+34548664+33922356+33538440+33780268+34237448+34234932+33690296
3990.00+33205846+33434228+34412124+35429588+35624632+34846928+33768392+33064218
3984.86+32842296+32968828+33361592+33751904+33747852+33376398+33097458+33163662
3979.71+33432412+33727456+33925016+33823860+33425428+33177770+33517902+34302008
3974.57+34975948+35156968+34868312+34395496+34047272+33965112+34105816+34418000
3969.43+34889560+35357168+35493764+35159072+34596328+34102744+33697420+33357398
3964.28+33290772+33543888+33612340+33091174+32494306+32651680+33433668+33932000
3959.14+33762244+33322340+32941592+32610760+32392094+32351046+32290168+32086750
3954.00+31977718+32160326+32458556+32553646+32244932+31575840+30966940+30880286
3948.86+31107184+30957034+30362668+30070144+30549750+31384066+31853476+31518472
3943.71+30364900+28968600+28369730+29228632+31121000+32921900+33757772+33575740
3938.57+33054304+32974830+33523212+34263436+34778716+35016624+34876980+33885192
3933.43+31755760+29245086+27896844+28469946+29948374+30714246+30482784+30417770
3928.29+31424820+33003186+33826652+33065754+31129234+29270602+28411262+28532394
3923.14+29283712+30452510+31397468+31042294+29280640+27533294+26976862+26934514
3918.00+25981078+24148846+23151220+24372300+27228174+29927732+31554064+32620396
3912.86+33663332+34436444+34726304+34777180+34623716+34131252+33656908+33516924
3907.72+33173160+31970320+29763150+26029952+20141904+13500636+9126696+7952195
3902.57+8104035+8514289+9986773+12155875+13063880+12690750+13698823+17656856
3897.43+23068338+27760418+30918242+32478528+32574872+31906800+31030850+29030644
3892.29+24529258+18591594+15060561+16691155+22077852+27721682+31431798+32041658
3887.15+27983942+19274292+10240115+6957535+11056474+18544126+24876888+28275364
3882.00+28405966+25198542+20258574+17255242+18804792+23648450+28498802+31806714
3876.86+34040420+35048636+33428360+28965950+24092082+21941076+23334108+25703032
3871.72+24662154+17429474+6046818-2943711-3599255+4265360+15586268+24385378
3866.58+26919192+22945272+16051368+11819980+13332099+18282378+22010992+22982398
3861.43+23656238+26288820+30108922+33137964+34423584+33905452+32266574+30531474
3856.29+26888268+15407322-7212126-33702244-50368052-51509328-42872316-30227630
3851.15-14446410+2672594+16677425+25354720+30234884+33259622+35142292+36316440
3846.01+36735232+35285168+31374018+26647718+23804666+23730520+24514230+23806612
3840.86+21720638+19724444+16440571+8111496-4415124-12796262-10085803+2065
3835.72+8652070+13035356+16531261+20978030+23877004+23075848+20459150+19930388
3830.58+23129944+28091952+31803084+32982932+32118442+30121894+28144770+27656748
3825.44+29135212+31209476+32001310+30200008+24507690+14469022+3178255-3330350
3820.29-1543184+6419844+15937129+22765894+22711664+13474324-734558-9663547
3815.15-6170410+6559018+19925804+28761154+33185314+35194576+36089728+36449456
3810.01+36609616+36090988+32839924+24762212+13510193+5498435+6240364+14066298
3804.86+22642004+27837482+28381574+22464182+9269629-5899882-13103771-7436936
3799.72+6081192+19079512+26910274+28973760+26837146+23709376+23043862+25743966
3794.58+29759806+32921484+34872224+36157560+36987604+37376576+37452836+37252044
3789.44+36780136+36287204+36005680+35793544+35351016+34501288+33215484+31835048
3784.29+31140676+31637810+32981118+34413524+35132788+34102464+30787776+26600500
3779.15+24283390+25165276+28059756+31089880+33329324+34688428+35433364+35921636
3774.01+36225388+36210980+35917160+34969512+32015970+26342856+20096768+17263704
3768.87+19736942+25236266+29421342+29581016+26655240+24130342+24632510+27643090
3763.72+30840380+32813246+33593200+33213528+31017456+26828650+22377428+20449842
3758.58+21821958+24160394+25111686+25095124+25813858+27483132+28352022+25131590
3753.44+14350844-2908234-17915042-22339996-19902818-20953640-26474480-26761662
3748.30-16053539-33593+11944533+13105836-330965-24985734-46044296-47375480
3743.15-29504294-7291457+8263208+16479537+20684328+22998248+23964366+22873934
3738.01+18450584+10938746+2733797-3545366-6229729-4459922+386371+3912405
3732.87+2759161-649220-174299+6723056+16361118+23920266+27995232+29573066
3727.73+29196564+26818204+23374720+20874382+20732674+22505472+24278242+24305094
3722.58+22733354+21633218+22689140+25124770+26861384+27221064+27272614+28005264
3717.44+29452856+31195380+32563704+32802636+31655400+28787498+22697900+12666800
3712.30+2307341-2247268+471337+5606639+9058690+11911457+16569397+22451530
3707.16+27424616+30612252+32255264+32799002+32878188+32650560+31105786+27483554
3702.01+23170136+20888970+22050608+25637180+29429708+31786610+32507430+32457720
3696.87+32514412+32933492+33399862+33407408+32849420+31995030+30302542+26292440
3691.73+20158434+14894959+11928065+7534857-1860723-12042247-13780252-4168304
3686.59+10057435+21295944+27560184+30492826+31708718+32145942+32516088+32972738
3681.44+32975670+31857526+29551868+27061002+25861196+25650128+22845290+13243614
3676.30-2640899-17585222-22773574-15481665-675373+13520303+20101768+16021421
3671.16+4622232-5602677-7997084-3110089+4868087+13725970+22684414+29985478
3666.02+34233536+36147768+37149764+37760708+38169692+38596940+38794632+38565436
3660.87+38350548+38412284+38481300+38443500+37541276+33546262+25698854+17979310
3655.73+16003953+20660158+27944224+33953516+36774964+35281392+29277018+20055660
3650.59+9506716-170720-5933941-5741671-1057162+5124180+12045564+20467900
3645.45+29475168+36720400+41048148+42981644+43457204+43392952+43672292+44523992
3640.30+45394688+45780016+45738452+45630596+45879032+46779456+48085492+48922788
3635.16+48454824+46700924+44791540+44298588+45738168+47353328+45652644+37806756
3630.02+24383988+10386019+2848488+5649011+16414502+29254710+39666672+46402816
3624.87+50286184+52571084+54048248+54891664+54937064+53743552+50552704+45243884
3619.73+39623808+36503308+37027480+40132860+44474024+49054144+52409388+53406212
3614.59+52578548+50983092+48784832+46770748+47240764+50589716+53067496+51128640
3609.45+46383984+43587548+44867068+48529200+52567704+56624284+60825536+64599020
3604.30+67003720+67706408+67384312+67004708+66828820+66576284+66323348+66485452
3599.16+67185008+68310744+69693440+70700440+70480544+69184920+68079880+68101288
3594.02+69115400+70643656+72382304+74071648+75467040+76122504+75066064+71701056
3588.88+67181456+63710300+62355096+62805228+64973976+69010000+73897080+77798648
3583.73+79956864+81156584+82343080+83566448+84376440+84733208+85209864+86233952
3578.59+87418624+88069632+88178472+88351416+88908096+89637240+90361152+91210776
3573.45+92352872+93680496+94812760+95422952+95520376+95119208+93714896+90749056
3568.31+86675472+82946552+80940400+81372640+84274920+88703200+92924848+95794336
3563.16+97673536+99512136+101518392+103195352+104259128+105035928+106013920
3558.66+107168840+107986144+108293024+108701560+109723248+110890856+111362128
3554.16+110975224+110184016+109498744+109460784+110568320+112710256+115098160
3549.66+116938816+117855648+117810304+117107408+116386504+116237648+116802520
3545.16+117770608+118679784+119399240+120379704+122108016+124314600+126215104
3540.67+127471848+128366520+129182616+129991576+130870024+131804504+132587704
3536.17+133129336+133629944+134363120+135515808+137079584+138612688+139473232
3531.67+139573552+139468256+139531280+139646544+139741328+139960592+140336128
3527.17+140897584+141880464+143258688+144434608+145032368+145535872+146588960
3522.67+148048096+149240240+149885088+150401104+151348816+152739488+153975840
3518.17+154595664+154920592+155666880+157046000+158686800+160284800+161763088
3513.67+162922160+163508480+163651072+163771392+164072336+164518336+165234624
3509.17+166460960+168035904+169382576+170175824+170687504+171301744+172013008
3504.67+172616336+173145920+173816928+174698528+175701728+176794688+178014976
3500.17+179282208+180358128+181105824+181718704+182570848+183782880+185067296
3495.67+186132016+187129120+188476960+190221872+191796944+192573680+192620672
3491.17+192689344+193331968+194267168+194908832+195265872+195854464+196884864
3486.67+198070080+199193488+200299120+201316048+201962832+202112192+201982528
3482.17+201994816+202512992+203602608+204971968+206298080+207522608+208676224
3477.67+209652368+210368464+210908736+211387856+211947536+212866784+214190288
3473.17+215317184+215615552+215430688+215844384+217384736+219500880+221267584
3468.67+222168112+222323952+222342592+222825472+223713088+224355584+224414896
3464.17+224334192+224651168+225286464+225863152+226402672+227237888+228412800
3459.67+229573728+230401456+230903504+231309344+231846464+232588208+233419136
3455.17+234188480+234853520+235377152+235601104+235472896+235283248+235409616
3450.67+235975136+236888272+237913968+238567584+238456288+237958224+238042640
3446.17+239150192+240752288+242132432+243022000+243483216+243800208+244439888
3441.67+245540112+246556176+246883568+246592336+246227296+246204928+246646256
3437.17+247362576+247878464+247876320+247656816+247803184+248493504+249418368
3432.67+250119408+250260560+249953424+249846928+250477840+251593104+252556688
3428.17+253125968+253363936+253202144+252666208+252145104+251992144+252206208
3423.67+252722256+253510384+254223744+254374240+254071408+254068800+254822320
3419.17+255842480+256235040+255673152+254647504+253873632+253620560+253666176
3414.67+253730256+253799696+254114768+254912288+256098288+257140992+257498816
3410.17+257191472+256706896+256378080+256134720+255855536+255620384+255557168
3405.67+255632528+255686208+255595296+255446432+255469792+255733568+256013360
3401.17+256093632+256015504+255909056+255765264+255475968+254937792+254090800
3396.67+253057280+252188864+251735872+251549056+251369600+251302320+251677680
3392.17+252462368+253114592+253159296+252738992+252396640+252370224+252347184
3387.67+251972496+251331664+250749792+250345600+250008800+249663616+249360080
3383.17+249175568+249140464+249184016+249149344+248971584+248845840+249043360
3378.67+249532320+249932848+249948656+249723744+249598128+249621584+249542928
3374.17+249257312+248961008+248810896+248705680+248514816+248271376+248038960
3369.67+247752160+247251952+246408656+245275712+244167184+243387760+242866288
3365.17+242320032+241772976+241527792+241610960+241688608+241590288+241492944
3360.67+241516944+241519216+241289472+240685840+239718928+238742080+238297840
3356.18+238461184+238635840+238365328+237954704+237886960+238028896+237941568
3351.68+237684128+237726544+238167184+238522096+238345168+237737712+237157552
3347.18+236838720+236522352+235821888+234770000+233762624+233004704+232403680
3342.68+232016800+232103424+232568544+232850128+232584560+232008288+231518480
3338.18+231208288+230978656+230807024+230760192+230837936+230883440+230698560
3333.68+230339072+230135088+230235168+230323408+230024208+229349888+228543536
3329.18+227801728+227330576+227309616+227537360+227497712+226959152+226257312
3324.68+225815648+225631056+225333984+224671488+223871920+223453600+223580528
3320.18+223773488+223498928+222884000+222560288+222853392+223377616+223488944
3315.68+223018928+222438848+222230560+222315296+222401104+222599264+223119344
3311.18+223559600+223244464+222230560+221255312+220772160+220722448+221105008
3306.68+221985744+222962544+223283424+222589408+221201216+219740896+218694624
3302.18+218175696+217952032+217850816+218025264+218553248+218975712+218710672
3297.68+217849008+217127136+217112464+217623424+217909376+217350224+216151296
3293.18+215295264+215527280+216473504+217079616+216747808+215711216+214544704
3288.68+213702752+213263424+212867680+212168960+211443696+211249200+211477312
3284.18+211444752+210981728+210615952+210585648+210435728+209767552+208792128
3279.68+208010848+207688448+207613600+207267008+206406432+205427328+204775040
3275.18+204277296+203601728+202922608+202480992+202044432+201504864+201282656
3270.68+201412176+201081376+199885184+198667344+198291072+198351232+197909136
3266.18+196850528+195751648+194886080+194042544+193106656+192306240+191808464
3261.68+191349376+190529712+189436544+188614256+188234080+187728336+186599328
3257.18+185200688+184231536+183762448+183248640+182352704+181282896+180384752
3252.68+179741744+179287728+179026176+178951040+178886608+178633872+178253856
3248.18+177980944+177864656+177686656+177253280+176598784+175936768+175528368
3243.68+175478880+175526576+175220560+174425056+173452528+172582512+171719040
3239.18+170710768+169709136+168987504+168590672+168376816+168281152+168299792
3234.68+168234048+167689760+166522096+165147072+164167984+163698544+163335728
3230.18+162799520+162239376+161846368+161597840+161554128+161881104+162345296
3225.68+162294464+161439264+160252768+159339920+158789136+158348080+157805504
3221.18+157045408+156118064+155337744+154983472+154946800+154983760+155084176
3216.68+155218624+155059456+154426672+153707120+153407376+153532016+153710208
3212.18+153587184+152913040+151715632+150571424+150218016+150704000+151299440
3207.68+151317664+150666512+149601728+148397632+147313200+146543936+146066176
3203.18+145687360+145246288+144732000+144282608+144108224+144268400+144524304
3198.68+144544960+144260048+143801520+143198784+142416368+141655168+141237552
3194.18+141149440+140990512+140480256+139759168+139179424+138991232+139241136
3189.68+139746576+140143440+140068848+139388240+138311248+137382608+137132320
3185.18+137524224+137930048+137835056+137285008+136504160+135540064+134545104
3180.68+133953976+134000656+134367488+134533584+134222016+133485672+132637576
3176.18+132091680+132036576+132329480+132764736+133222960+133497480+133335288
3171.69+132758016+132101160+131619824+131263192+130876296+130505072+130396672
3167.19+130709176+131281696+131776960+131975336+131833808+131433560+131045616
3162.69+130997392+131254736+131392896+131146024+130659200+130127048+129571704
3158.19+129003528+128437688+127853224+127405496+127393712+127792968+128216592
3153.69+128456760+128530984+128278016+127576752+126842232+126554680+126519768
3149.19+126255248+125801296+125514032+125379712+125088136+124519904+123855784
3144.69+123415680+123455912+123861904+124135888+123911728+123289896+122531768
3140.19+121727304+120928064+120289040+119929232+119770424+119566848+119094360
3135.69+118389488+117744816+117381040+117286432+117392920+117589928+117590224
3131.19+117199104+116725344+116605736+116673216+116302800+115286728+114110384
3126.69+113356552+113144280+113173640+113144280+113019640+112836176+112442240
3122.19+111691704+110848544+110408728+110554896+111039664+111457920+111421072
3117.69+110782808+109947784+109548264+109680944+109843384+109679072+109329272
3113.19+109050976+108871416+108673120+108372376+108036056+107822688+107711896
3108.69+107481240+107114904+106865552+106680560+106080936+104950344+103936216
3104.19+103708680+104171984+104657296+104640728+104167528+103718616+103662312
3099.69+103847368+103887680+103678720+103388568+103191184+103253232+103645176
3095.19+104041200+103945144+103381080+102817168+102366792+101688304+100756008
3090.69+100037600+99826968+99981952+100378512+101060648+101819232+102108752
3086.19+101641976+100830504+100353632+100357520+100389592+100135216+99833136
3081.69+99773776+99758816+99400888+98695952+97962968+97439864+97213384+97345496
3076.55+97778808+98182184+98155736+97628712+96925624+96436056+96283616+96349936
3071.40+96454584+96428448+96169072+95758440+95409456+95207432+95087344+95049912
3066.26+95091792+94951904+94362512+93562056+93111192+93207240+93526208+93669592
3061.12+93433024+92846880+92250992+92097104+92404032+92683768+92560952+92173040
3055.98+91806960+91486080+91103208+90752784+90654840+90796592+90818928+90445496
3050.83+89941840+89833480+90176624+90458800+90260648+89619632+88767592+87984384
3045.69+87651144+87913864+88360864+88513216+88460432+88563136+88756576+88684608
3040.55+88309072+87918872+87688472+87523872+87197424+86521512+85598608+84951304
3035.41+85116296+86035160+87042304+87485408+87236176+86650608+86157344+85885824
3030.26+85697200+85550456+85608472+85862528+85965712+85695056+85324720+85277008
3025.12+85589176+85949400+86115752+86111048+86067032+86026720+85932256+85793656
3019.98+85754360+85874384+86008440+86065304+86186640+86466488+86756520+86961520
3014.84+87182416+87343840+87126072+86529384+86056160+86029992+86137336+85948264
3009.69+85521176+85228584+85209592+85224576+84998592+84616792+84481120+84804328
3004.55+85295144+85554888+85598040+85686200+85855384+85977408+86144192+86596704
2999.41+87321960+88016992+88455560+88690048+88845000+88871040+88668440+88412936
2994.27+88519792+89151640+89941408+90386072+90355000+90092144+89923368+90074968
2989.12+90596832+91341824+92102112+92756584+93259136+93660424+94169904+94942872
2983.98+95789024+96376200+96700496+97036040+97505488+98030912+98556864+99024048
2978.84+99329176+99551680+99980360+100721056+101555800+102333992+103151160
2974.34+104059208+104920504+105673448+106437168+107264600+108035768+108680040
2969.84+109324224+110114848+111011200+111835352+112496160+113050592+113576672
2965.34+114070592+114481016+114776328+115002208+115289912+115720808+116158168
2960.84+116367824+116402576+116606464+117158832+117829424+118293840+118460056
2956.34+118374848+118005184+117273840+116292536+115447680+115084984+115051704
2951.84+114773288+113988864+113105960+112612384+112493560+112522032+112692336
2947.34+113014152+113263288+113307536+113378976+113731568+114255472+114622944
2942.84+114626136+114348496+114186760+114582880+115475744+116222728+116319600
2938.34+116032496+116044352+116640912+117504176+118164008+118413840+118372096
2933.84+118288768+118281960+118278768+118239784+118301808+118535136+118737608
2929.34+118741536+118752536+119034480+119407648+119506832+119382864+119327624
2924.84+119266584+118881696+118224128+117667304+117347856+117118424+116881312
2920.34+116513784+115759320+114637856+113663136+113226424+113092808+112842384
2915.84+112439064+112037104+111539840+110720856+109613240+108560264+107882688
2911.34+107527688+107125720+106455192+105678208+104959992+104139440+103111136
2906.84+102213520+101802120+101656784+101238000+100358520+99266064+98282752
2902.34+97671808+97639344+98090816+98490928+98299848+97582480+96991968+97061040
2897.20+97632032+98088656+98023440+97561368+97085288+96754920+96324672+95448920
2892.06+94213208+93209384+92936608+93282928+93780576+94103792+94149680+93964680
2886.91+93781448+93770536+93646088+92992216+92028464+91473904+91641504+92224616
2881.77+92919840+93626856+94097192+94012600+93440200+92808048+92457192+92404032
2876.63+92426808+92309880+92113152+92126768+92419224+92639344+92452032+91894368
2871.49+91182696+90481288+89932536+89619912+89419536+89078376+88431960+87504576
2866.34+86595416+86173200+86422168+86944656+87183408+86945512+86339568+85542184
2861.20+84869312+84614944+84604088+84335736+83732200+83238576+83133672+83228576
2856.06+83297664+83347488+83442968+83604560+83861968+84146968+84268208+84189520
2850.92+84151672+84279760+84266920+83751040+82882616+82140488+81671872+81235728
2845.77+80783560+80502248+80208304+79352744+77874552+76462336+75742328+75694088
2840.63+75989040+76373392+76622304+76562240+76195936+75590104+74834376+74186680
2835.49+73822440+73449744+72733520+72011680+71862400+72120344+72143224+71858432
2830.35+71742816+71928456+72052032+71858856+71408656+70839704+70294176+69933680
2825.20+69838032+69981656+70293608+70630304+70817696+70828632+70747992+70574520
2820.06+70264936+69905728+69589848+69244080+68814248+68462064+68402216+68637088
2814.92+68922760+68915816+68451152+67779144+67335120+67218880+67167144+67033620
2809.78+66933132+66893448+66816640+66782768+66990396+67344760+67463696+67140352
2804.63+66579400+66131788+65968716+66034740+66155732+66165644+66035020+65937268
2799.49+66080072+66369256+66406952+65984732+65384260+64979352+64797952+64699688
2794.35+64681144+64717960+64623376+64367960+64230636+64430672+64872020+65349268
2789.21+65648140+65486516+64793284+64039672+63866416+64334688+64890000+65068708
2784.06+64958392+64914640+65079048+65304092+65457344+65598560+65778180+65862896
2778.92+65707488+65397564+65173512+65237100+65655928+66247964+66576996+66354380
2773.78+65818124+65450828+65433116+65672784+66134340+66738828+67171256+67181456
2768.64+66895720+66570196+66263272+65982748+65879748+66077664+66494240+66945748
2763.49+67281816+67403304+67333560+67305504+67598520+68206656+68758504+68909848
2758.35+68802048+68917088+69410648+69891104+70056592+70133936+70371680+70543712
2753.21+70418656+70306096+70625056+71290928+71987536+72646848+73240832+73515128
2748.07+73384512+73223200+73413216+73878320+74326296+74642248+74895240+75219096
2742.92+75771776+76576616+77426304+78142576+78781984+79412456+79912528+80225688
2737.78+80590928+81261968+82159312+82977384+83540184+83964912+84527672+85340872
2732.64+86193360+86880168+87626400+88845144+90468976+91929328+92876120+93533672
2727.49+94282336+95247608+96376912+97646088+99091880+100701640+102310664
2723.00+103693264+104891992+106270648+108003312+109781880+111284400+112632336
2718.50+114121376+115860224+117859120+120063232+122187128+124018216+125896088
2714.00+128327352+131183040+133845864+136068064+138132624+140331728+142746480
2709.50+145376336+148144832+150987056+153994960+157185856+160221936+162829376
2705.00+165296144+168053104+171041200+173988080+176959376+180136464+183395888
2700.50+186595872+189921232+193552912+197299776+200867504+204248240+207672640
2696.00+211333872+215234528+219203232+223089792+226974352+231029504+235140096
2691.50+238891408+242056128+244967056+248257376+252264880+256747200+261220032
2687.00+265483152+269662080+273818208+277839264+281740384+285771712+290104000
2682.50+294628192+299119776+303419200+307491840+311492128+315679936+320063168
2678.00+324279968+328030656+331476192+335046400+339015968+343395968+348062880
2673.50+352848288+357611776+362327136+366995776+371474688+375562816+379324256
2669.00+383142112+387322752+391789088+396312672+400862720+405485472+409985120
2664.50+414094720+417933952+421981056+426513472+431332480+436043584+440384096
2660.00+444338752+448174688+452278016+456741312+461232512+465466752+469599968
2655.50+473956256+478578208+483257120+487785440+492064256+496125376+500172928
2651.00+504436800+508958528+513631840+518347680+522969504+527357248+531588576
2646.50+535944672+540490624+544924032+549042560+553123136+557584064+562432960
2642.00+567231936+571612928+575710272+579987136+584664832+589486016+594133888
2637.50+598628416+603129408+607589248+611871616+616002304+620128576+624417152
2633.00+629029696+633889728+638531584+642616128+646506368+650836416+655654912
2628.50+660501632+665156608+669746496+674290624+678684864+682990720+687327168
2624.00+691640768+695865664+700078464+704297856+708401216+712397760+716503360
2619.50+720841024+725291840+729710976+734089536+738470528+742865728+747260992
2615.00+751630080+755945408+760204800+764425600+768642816+772914304+777235456
2610.50+781440384+785374464+789205248+793336384+797894144+802522816+806844608
2606.00+810899840+814918272+818841088+822401088+825623616+828955904+832814400
2601.50+837164800+841580032+845618560+849149120+852408576+855717760+859167680
2597.00+862645568+866070208+869452160+872782592+876063168+879375616+882770688
2592.50+886152768+889382336+892429312+895385024+898420608+901643840+904908672
2588.00+907920000+910678400+913521024+916580160+919567104+922284864+924926080
2583.50+927689856+930533824+933405952+936294080+939072064+941698176+944428480
2579.00+947379776+950179200+952529472+954771392+957346496+960074752+962480192
2574.50+964456768+966199744+967824832+969458688+971365504+973673920+976188992
2570.00+978614912+980800576+982736320+984499200+986172480+987769536+989338240
2565.50+991079488+993078208+995024512+996579200+997911808+999446336+1001168768
2561.00+1002636160+1003667392+1004591168+1005802048+1007358400+1009065792
2557.15+1010736640+1012311936+1013819776+1015252416+1016531200+1017621696
2553.29+1018591936+1019544320+1020542592+1021613120+1022709504+1023719552
2549.43+1024613312+1025540352+1026688256+1028094208+1029610816+1030975808
2545.58+1031935808+1032469888+1032851072+1033393216+1034185280+1035155712
2541.72+1036213056+1037263168+1038241600+1039200768+1040160000+1040935616
2537.86+1041395584+1041797440+1042521920+1043521600+1044393344+1044987328
2534.01+1045589120+1046467456+1047516800+1048463680+1049223616+1049920704
2530.15+1050639232+1051292800+1051749696+1052017664+1052264832+1052686208
2526.29+1053335104+1054085632+1054746048+1055252800+1055728128+1056361216
2522.43+1057276480+1058432832+1059566400+1060314624+1060530368+1060426496
2518.58+1060309888+1060300480+1060395072+1060633152+1061044288+1061560896
2514.72+1062082624+1062565056+1063024832+1063518272+1064060288+1064573888
2510.86+1065014016+1065477184+1066015232+1066428800+1066486208+1066281792
2507.01+1066125632+1066160064+1066267776+1066296064+1066225216+1066193280
2503.15+1066362176+1066696320+1066924352+1066830912+1066486528+1066102656
2499.29+1065785216+1065540288+1065375168+1065312960+1065316672+1065232128
2495.44+1064851392+1064111616+1063179712+1062262912+1061454656+1060805184
2491.58+1060285696+1059623424+1058521920+1057147392+1056035008+1055441280
2487.72+1055149824+1054873216+1054445440+1053672384+1052443392+1050951808
2483.87+1049490368+1048118464+1046731520+1045321600+1043965952+1042693952
2480.01+1041447104+1040065216+1038371712+1036459776+1034739136+1033478784
2476.15+1032400512+1030963584+1028977024+1026716224+1024542528+1022626112
2472.29+1020970304+1019446464+1017822336+1015996224+1014153344+1012433152
2468.44+1010585728+1008316224+1005833664+1003625856+1001775744+999973824
2464.58+998055360+996069632+993987136+991785728+989652672+987740608+985931520
2460.08+984040192+982001664+979768320+977332288+974866944+972525568+970224448
2455.58+967885376+965648704+963599488+961631232+959732672+958000768+956274368
2451.08+954247872+951983808+949823872+947818816+945716224+943508608+941534272
2446.58+940004672+938712960+937292672+935634176+933968192+932508032+931121344
2442.08+929552064+927876288+926406912+925158464+923772480+922033344+920140416
2437.58+918423104+917025792+915907904+914945344+913995648+912969600+911895040
2433.08+910886912+910012928+909165440+908133504+906893248+905719104+904873152
2428.58+904240384+903443200+902280448+900956288+899874048+899250112+898876032
2424.08+898325120+897452800+896555776+895929408+895465472+894878080+894118720
2419.58+893327424+892532032+891637440+890631168+889627392+888791424+888221952
2415.08+887777088+887072896+885922240+884699136+883932736+883607168+883279424
2410.58+882762944+882198848+881535040+880529216+879291840+878252288+877548864
2406.08+876906880+876128000+875287488+874476224+873689344+872889664+871958336
2401.58+870744960+869348160+868111936+867207616+866419072+865458752+864273856
2397.08+862984832+861683840+860367808+858973184+857493440+856051776+854765248
2392.58+853564992+852285184+850908416+849550784+848213696+846725312+844945344
2388.08+842964096+841047744+839362688+837781120+836036032+834082816+832216960
2383.58+830722816+829471040+828006720+826055104+823794304+821558400+819444160
2379.09+817367040+815322688+813317824+811177408+808711424+805999680+803290880
2374.59+800710208+798240896+795839744+793405632+790774144+787895552+784916672
2370.09+782043968+779381696+776876672+774335936+771580032+768632192+765681024
2365.59+762875456+760265472+757829504+755457664+753012416+750511936+748137088
2361.09+746038592+744225536+742565504+740791232+738702848+736482944+734546304
2356.59+733012352+731633280+730266176+729060480+728122496+727335552+726529536
2352.09+725604096+724517952+723274112+721845632+720109568+717982592+715557440
2347.59+712922176+709999424+706734912+703288576+699903872+696735424+693840640
2343.09+691171840+688592640+686070336+683723584+681570048+679400512+677036544
2338.59+674532544+672060416+669748480+667605696+665487360+663204224+660764928
2334.09+658402560+656284992+654312192+652240832+649928384+647468800+645134272
2329.59+643124032+641371392+639633856+637734912+635688896+633685568+631915840
2325.09+630282368+628446976+626324096+624238976+622386432+620546944+618598720
2320.59+616792832+615209664+613483072+611404736+609292160+607459968+605754240
2316.09+603851264+601685760+599427008+597261568+595277376+593417984+591565312
2311.59+589671168+587715328+585608704+583306432+580932864+578650432+576496896
2307.09+574441600+572469248+570558272+568666944+566733696+564643264+562339904
2302.59+559985088+557812992+555812352+553772416+551620288+549463488+547341312
2298.09+545176960+542937728+540657664+538385600+536203424+534194944+532315520
2293.59+530390624+528293824+526043904+523754208+521532960+519409952+517307680
2289.09+515131008+512887328+510681344+508614208+506694528+504818400+502841600
2284.59+500724000+498554112+496408672+494258656+492049600+489787232+487523776
2280.09+485332352+483284064+481370368+479512192+477674400+475856384+473971840
2275.59+471914336+469770912+467751360+465893440+464005344+461920064+459664256
2271.09+457413056+455363008+453591936+451979264+450337728+448620256+446866816
2266.59+445043840+443117024+441178272+439299936+437373632+435289440+433170112
2262.09+431213824+429399328+427556384+425655360+423824992+422104224+420367392
2257.59+418537120+416719008+415013664+413303712+411379680+409230208+407080448
2253.09+405155456+403517568+402092192+400712064+399181152+397398880+395413984
2248.59+393380160+391510976+389997472+388783520+387503680+385841920+383867584
2244.09+381872864+380020032+378316480+376712736+375082400+373319680+371548896
2239.59+369961856+368454272+366782272+365000256+363341728+361757152+360030944
2235.09+358262656+356760832+355544640+354367296+353109440+351796384+350355616
2230.59+348711584+347027584+345556864+344293312+342973984+341423424+339765824
2226.09+338254080+336977536+335800672+334541056+333094144+331412000+329542528
2221.59+327733280+326294240+325242048+324237248+322943840+321366656+319791648
2217.09+318457312+317336928+316220256+314945280+313501856+311962176+310424608
2212.59+309013792+307763680+306529920+305180128+303815072+302609472+301512672
2208.09+300323776+298997824+297719552+296678752+295837088+294896768+293595936
2203.59+292043328+290599360+289382080+288192960+286935456+285739296+284618656
2199.09+283416064+282122912+280882880+279725760+278612672+277578240+276599680
2194.60+275546432+274457888+273512384+272626624+271504448+270151392+268884512
2190.10+267814064+266758016+265645952+264597984+263654880+262722272+261703392
2185.60+260544432+259299616+258183712+257341200+256602560+255696512+254627408
2181.10+253613920+252754512+251927952+250961568+249799248+248571696+247470624
2176.60+246543936+245713488+244981312+244382960+243746672+242811376+241569648
2172.10+240228256+238907728+237651632+236590688+235827520+235271648+234768336
2167.60+234236320+233601760+232806528+231926224+231072128+230228640+229359616
2163.10+228538512+227771808+226923616+225940128+224917168+223879360+222796352
2158.60+221820240+221142592+220619600+219908224+218944208+217974896+217180496
2154.10+216550000+216059520+215692320+215317504+214720144+213778688+212620560
2149.60+211584928+210914768+210451104+209811424+208900208+208016128+207407536
2145.10+207002592+206607744+206101456+205378416+204379568+203255296+202285456
2140.60+201556256+200855952+199989664+199064720+198350928+197937488+197675152
2136.10+197408944+197070176+196553232+195758688+194775840+193799952+192884064
2131.60+192029600+191399936+191099760+190861232+190316960+189492272+188714784
2127.10+188159232+187749696+187333520+186778144+186071584+185415648+185008832
2122.60+184740496+184327264+183670768+182877520+182065168+181356320+180901520
2118.10+180723008+180635904+180382832+179790256+178903728+178037152+177485776
2113.60+177164224+176761536+176228608+175749408+175342688+174884640+174412848
2109.10+174019248+173600944+173035072+172401936+171781616+171123808+170472704
2104.60+169984640+169601584+169072496+168361552+167678960+167114944+166575504
2100.10+166051728+165680128+165536496+165520976+165411808+165024624+164441024
2095.60+163984512+163799040+163615632+163163280+162559776+162033024+161503952
2091.10+160786608+159982272+159350672+158947824+158644768+158381712+158213024
2086.60+158159200+158136800+157948080+157362400+156377472+155381632+154834768
2082.10+154743792+154657360+154241632+153665472+153311136+153256144+153200368
2077.60+152842000+152199696+151549040+151132432+150935472+150719424+150259152
2073.10+149587920+148964000+148562816+148301168+148046912+147842576+147748064
2068.60+147621984+147292528+146812112+146304528+145713296+145004096+144412752
2064.10+144123024+143875072+143325056+142646016+142308160+142335536+142303616
2059.60+142033760+141811968+141818992+141830256+141595872+141163632+140658032
2055.10+140105552+139598864+139334880+139283248+139104704+138564448+137822928
2050.60+137174128+136682944+136245200+135826512+135499888+135349824+135421648
2046.10+135664016+135850032+135693936+135119888+134322848+133521696+132803952
2041.60+132246664+131981472+131999120+132072304+131988040+131725064+131316096
2037.10+130766288+130203368+129830200+129608112+129264744+128724600+128256480
2032.60+128110368+128240904+128431728+128458656+128193896+127775368+127550408
2028.10+127623304+127648344+127288104+126628864+125954392+125406744+125045256
2023.60+124920408+124910816+124752128+124373872+123999312+123831528+123796088
2019.10+123621056+123071048+122181752+121337072+120972304+121115792+121350280
2014.60+121286288+120933272+120563056+120383472+120389720+120406968+120218120
2010.11+119757824+119217432+118865032+118755880+118726744+118667760+118636888
2005.61+118652104+118556144+118213408+117717856+117283976+117021520+116894216
2001.11+116813688+116672344+116369992+115891336+115359528+114953584+114786888
1996.61+114838832+114988032+115084704+114954456+114345608+113066648+111352728
1992.11+109980408+109712560+110519216+111544768+111924224+111530304+110932616
1987.61+110791640+111328032+112198976+112783120+112695648+112132056+111616000
1983.11+111434512+111464704+111516432+111551552+111513984+111252320+110770976
1978.61+110352248+110255792+110425920+110593744+110565288+110316008+109917600
1974.11+109508136+109281776+109339520+109493840+109375752+108842408+108138792
1969.61+107509376+106826048+105854768+104783648+104199504+104495944+105469960
1965.11+106494976+107015960+106905216+106444384+105996320+105730536+105625888
1960.61+105597216+105552400+105463760+105459304+105717432+106171904+106438192
1956.11+106172056+105454248+104699216+104211464+103970640+103868240+103919376
1951.61+104088024+104145496+103950904+103689680+103587008+103564240+103373888
1947.11+102902256+102228064+101576520+101179600+100843736+99878000+98028328
1942.61+96334432+96260656+97923456+99947304+101144648+101580248+101863568
1938.11+102148336+102191640+101924560+101572912+101388344+101459120+101673200
1933.61+101791328+101664432+101391792+101169824+101040800+100905880+100726816
1929.11+100568904+100495704+100484488+100424240+100229256+99989856+99763720
1924.61+99173080+97723936+95815432+94760552+95335272+96933808+98412760+98773712
1919.47+96993536+92900192+88732536+87891560+91040920+95214032+97587072+98212624
1914.32+98489064+98888960+99142744+99175952+98974600+98414920+97668936+97125936
1909.18+96879536+96822248+97020688+97522152+98051456+98268944+98121408+97833680
1904.04+97750232+98067824+98565216+98811800+98720544+98590208+98604304+98624704
1898.90+98487328+98229728+98023880+97922168+97651120+96922176+96073480+95877568
1893.75+96473104+97154656+97387432+97129384+96069608+93837928+91294856+90310768
1888.61+91685344+94221824+96236240+97095496+97122056+96847520+96645808+96662032
1883.47+96864888+97203480+97626552+97988240+98129608+98035368+97805384+97553608
1878.33+97402664+97448896+97689184+98017832+98289208+98419376+98452000+98451128
1873.18+98373536+98200568+97846608+96535680+93003840+87385464+82369048+80994728
1868.04+83436552+87311240+90686760+93280496+95283336+96627288+97384712+97857520
1862.90+98162344+98251432+98202584+98206024+98340784+98511048+98587640+98612048
1857.76+98744400+98928480+98908784+98707464+98680168+98979064+99367392+99619384
1852.61+99700736+99635192+99487432+99307032+98941704+98194960+97159536+96249168
1847.47+96021952+96413808+95364696+89590432+79192872+70635560+71230872+80214576
1842.33+89935968+95295240+97206496+98160336+98830768+99070024+98946584+98365080
1837.19+97490552+97164576+97773072+98595376+98905640+98741800+98460184+98188216
1832.04+97229608+93952216+87912008+82172168+81144888+85615184+92149392+96990392
1826.90+98136496+95196672+90204536+87343696+89050904+93317192+96709544+98255160
1821.76+98983816+99621256+100147000+100351472+99936232+98867976+97789448
1817.26+97435544+97846608+98592648+99297552+99680616+99643688+99370840+98835936
1812.12+97512952+95281616+93295552+93104032+94843176+96967408+98006912+98096992
1806.97+98334608+99063712+99653168+99725480+99384792+98298984+95997400+93186592
1801.83+91227688+90173032+89018840+87975656+88649272+91555688+94969560+96722320
1796.69+96333992+95246456+94993664+94592728+90541856+81264400+71136440+67345328
1791.55+71953312+80300536+87550472+92665720+96102328+97835256+98339784+98339920
1786.40+97111144+93765664+90084992+89191280+91468600+94351320+95609488+94720376
1781.26+92312024+90154856+90219136+92390272+94721952+96155008+96716296+95822312
1776.12+93427152+91438520+90147544+85192576+73054512+58423576+51382872+56524808
1770.98+68906016+80511808+86078024+84585520+79811624+78234856+82840656+90065376
1765.83+94877608+96342624+96372176+95195808+90726432+82588648+75093792+74212264
1760.69+80859408+89489664+94434944+94678640+91766288+87047880+83057304+83473952
1755.55+88448984+93668304+96143672+96215288+92847304+83468944+71020016+64593356
1750.41+68462352+76379656+81059184+82500744+84365168+87755680+91332664+94001400
1745.26+95197824+94591576+92856904+91867288+93222864+95848432+95464424+88863592
1740.12+79556808+75960152+81600992+91149328+98159336+100382824+95845280
1735.62+80832744+56366368+33512454+26724046+39950464+63080844+82531144+91581912
1730.48+92374944+91483352+93346296+97317928+100574944+101968160+102294976
1725.98+102348376+102015936+101052728+99875120+99301424+99819640+101217008
1721.48+102602120+102561968+99199656+90082128+73610792+53120328+39053108
1716.98+40920052+55003612+68277136+74652064+79104248+86692344+95241008
1712.48+100924856+103647760+104477512+103717752+102945152+104040200+105618688
1707.98+104430104+99866496+94355480+90553880+89794264+91838496+95681960
1703.48+100908888+105404672+101458968+80821048+47937464+24317758+29938752
1698.98+59924980+91278104+105066464+95643800+72119776+56323616+66173868
1694.48+95469008+123245024+138374256+144471248+148140432+150857584+152213216
1689.98+153951552+157434800+161728992+166540272+172091312+173698480+162666416
1685.48+137607504+112584200+107431336+126601656+156459856+182767248+200077504
1680.98+209176784+213750160+218148448+224531440+231936144+237831568+238873856
1676.48+232218080+220418160+213933952+222298928+241723472+258887104+266212880
1671.98+267019984+267036832+266268992+262463136+259037440+263644992+278365568
1667.48+296439200+310260992+318374144+323602176+327285888+327723584+324287936
1662.98+321207456+324838752+336394848+350330336+361185152+368550848+374512064
1658.48+379984896+385161056+390236608+393815136+392649792+383165216+362035936
1653.98+329260992+296483520+287648768+316186816+365228768+407171104+429555680
1649.48+435436032+432451456+426053824+418333952+409961120+404296512+408246144
1644.98+424260896+444133024+457360160+462125408+463424800+464306176+464250976
1640.48+463473888+462596160+459963488+454132544+446003552+434551488+415852256
1635.98+392384448+378051328+383971488+402595296+417462656+421611904+418735296
1631.48+413685600+407860256+400856800+391738048+379736704+366255616+354798176
1626.98+347489408+342766528+336579616+325065664+307825792+290041536+278982880
1622.48+276505472+277509472+276363328+271764608+265665872+259167616+248896160
1617.98+228936944+200285600+177327888+175996048+193126256+210729536+218223056
1613.48+218254832+216200128+213433024+210132016+207296848+204889392+202261104
1608.98+200010368+198696608+197475680+195897328+194778672+194296656+193611760
1604.48+192607344+191807584+191060880+190105104+189404704+189153632+188858064
1599.98+188530752+188613792+188743312+188325936+187806304+187714912+187501824
1595.48+186750384+186227056+186582608+187433120+188321008+189151408+189628896
1590.99+189601664+189555776+189806016+190153408+190859296+192433008+194308048
1586.49+195515184+196298400+197323024+198285968+198967040+200009344+201396560
1581.99+202318816+203078496+204534336+206113776+207084960+207381488+203720496
1577.49+189702128+166170672+148484256+153390752+177431664+201828496+215058448
1572.99+219312224+220675056+220048752+214250416+203238464+193622384+193303344
1568.49+202773920+215008736+223370032+225965952+224123888+220614912+218702816
1563.99+220056480+223432944+225363872+220453888+202960640+172732800+139502320
1559.49+116176832+107676552+112870296+132099408+161451088+186831296+195163248
1554.99+187843056+179047728+180899152+192206016+203336176+207235392+203814496
1550.49+197870432+194584240+195763360+199554032+202916160+203212592+198318384
1545.99+188218544+177428992+172068768+171471376+167165728+154213248+138639888
1541.49+128086640+119196264+104621128+90044760+92087352+115740920+146239680
1536.99+167587760+175870352+174560464+166539840+154184112+143444464+141554304
1532.49+149074864+159014656+165339200+167716864+167497600+164455360+159525472
1527.99+155760432+153617344+149799296+143556240+139648432+141844592+146589120
1523.49+146096992+135734384+117933312+101763416+98024592+110419416+130838560
1518.99+145838976+147887664+140910160+135712352+138716048+146914960+154794112
1514.49+160279184+162418096+160015776+155232896+153023232+154440800+155402096
1509.99+152980416+147292368+137215168+120217680+98001464+79138016+74308672
1505.49+88144864+114813512+142030832+160164544+167677936+169233408+169985984
1500.99+171128544+169931728+164590944+158563824+156691152+156805952+152239824
1496.49+144350336+144160256+156960512+173974736+184997952+189105040+189589872
1491.99+186690976+179821072+172512192+170403632+175125376+182671136+188095456
1487.49+190746528+194216112+201057968+209296448+215613728+219645792+223034256
1482.99+226212112+228503712+230299840+232964032+237037328+241957664+247052880
1478.49+251320480+252870928+250907872+248429872+249951120+254981920+257224400
1473.99+252429216+244224256+240641392+246748912+261766016+280693504+297121024
1469.49+307087968+311647296+314582848+317664384+319165216+316412736+309478784
1464.99+303470112+305440832+316179232+328311360+335512672+338689280+340673024
1460.49+340491808+336436736+329021696+317275168+298971328+279536768+273742400
1455.99+289654752+316950752+339848288+352411392+357497824+359018816+359050816
1451.49+359152288+360404224+361977824+361533984+357900288+353117440+351152096
1446.99+353930336+359210176+363184928+364378848+364080704+363666944+363049120
1442.49+361962176+361064224+360686400+360004096+358527008+356183232+350384768
1437.99+336715968+316524672+301172256+301807264+315050816+327340128+330919808
1433.49+328219840+324223296+320391968+315669152+309310528+302085472+296337632
1428.99+293979616+293766336+292716960+290117888+287183680+283525024+277719552
1424.49+270795776+265479440+262666416+261432816+260263168+255394768+242097712
1419.99+222126576+206663312+205498656+215149872+224761328+229214864+230628720
1415.49+231623792+232246832+231945712+230843888+229221872+227428560+225911312
1410.99+224680912+223410960+222206016+221501568+221297120+221043040+219984992
1406.50+217372304+213185840+209112560+207670848+209426560+212072496+213203808
1402.00+212683664+211041936+207192768+200194896+192475056+188327584+188878256
1397.50+190980880+191005376+187370272+180489552+173104512+169637424+172094432
1393.00+177359408+180791952+180976432+179474928+177738112+175517072+171245984
1388.50+163845440+155358080+150692368+152451040+157499792+161083760+162023296
1384.00+161822464+161271824+160261472+159109216+158137376+157125136+156015536
1379.50+155100816+154440656+154033104+154022784+153953632+152726976+149935488
1375.00+146461040+143701296+142944496+144835488+148467824+151813568+153734640
1370.50+154513824+154371344+153211680+151940160+151924144+152984112+153746992
1366.00+153680032+152915680+150827008+146960016+142819568+140643696+140773184
1361.50+141972864+143691920+146166928+148839616+150407008+150366000+149415472
1357.00+148447264+147862256+147695664+147747024+147658544+147280336+146846432
1352.50+146564608+146287664+145832976+145346416+145055696+144890032+144637616
1348.00+144346368+144222384+144249200+144211680+144105584+144219312+144688640
1343.50+145204064+145234848+144381104+142522256+139976240+137612768+136422656
1339.00+136671712+137683792+138570880+138995328+139208080+139622544+140403440
1334.50+141269328+141695136+141449072+140863632+140432256+140304368+140310656
1330.00+140327056+140382800+140497952+140596992+140595408+140458592+140170944
1325.50+139738976+139296416+139070480+139133056+139305184+139406816+139362064
1321.00+138953504+137881520+136342768+135132000+134803280+135090400+135429520
1316.50+135612176+135601824+135193600+134314096+133391152+133048384+133497048
1312.00+134377280+135133312+135451728+135354192+134979616+134443680+133953400
1307.50+133776112+133934280+134113448+134081496+133983744+134053040+134256160
1303.00+134420192+134496800+134498832+134373760+134166568+134156952+134576640
1298.50+135237536+135664160+135648960+135487344+135581520+135993440+136496560
1294.00+136911152+137235616+137562928+137996848+138549536+139018416+139116400
1289.50+138854224+138657424+138938160+139653712+140428752+140990800+141332704
1285.00+141553728+141753568+142030240+142445520+143006608+143705104+144494848
1280.50+145211968+145702896+146062944+146548336+147204896+147834240+148391184
1276.00+149129936+150213040+151397632+152291776+152827152+153345440+154216928
1271.50+155439792+156689840+157724320+158615728+159549984+160618176+161875168
1267.00+163388480+165070896+166671104+168052192+169339920+170683632+172036752
1262.50+173308256+174629952+176340480+178671520+181477680+184355440+187015824
1258.00+189440416+191725904+193970816+196330480+198971232+201929760+205165024
1253.50+208651072+212229312+215529104+218317488+220852000+223620128+226803936
1249.00+230207952+233621408+237034448+240521120+244057136+247518272+250890080
1244.50+254440640+258557872+263292032+268195072+272792096+277130176+281652064
1240.00+286561824+291578432+296388832+301110432+306129376+311589664+317225088
1235.50+322649184+327690432+332487328+337377056+342671968+348398880+354213568
1231.00+359659808+364607168+369395008+374464160+379903424+385424960+390752768
1226.50+395844864+400780992+405605856+410363968+415140096+420017888+424975872
1222.01+429833088+434340928+438426368+442276000+446059328+449683008+452987968
1217.51+456052672+459095008+462177216+465160480+467838368+470043904+471774112
1213.01+473238784+474610688+475772320+476531680+476970304+477314496+477572992
1208.51+477606656+477431936+477140960+476555680+475310528+473291328+470784416
1204.01+468157696+465566176+462958176+460165312+456970848+453307232+449444288
1199.51+445743040+442200928+438453664+434244864+429653824+424885568+420100320
1195.01+415443456+410955232+406492128+401926336+397310720+392679680+387925280
1190.51+383087872+378480960+374300608+370362144+366426496+362527008+358760992
1186.01+355036896+351259968+347576608+344217440+341195968+338356864+335688096
1181.51+333366016+331468704+329773408+327901152+325633120+323140160+320924896
1177.01+319380224+318349216+317355616+316264800+315307104+314479328+313506624
1172.51+312445408+311657568+311138112+310531392+309819136+309337888+309190048
1168.01+309214784+309312544+309314080+308954944+308429600+308432608+309229728
1163.51+310269632+310998528+311442848+311825088+312271392+312966880+313998720
1159.01+315030752+315657472+315931552+316174976+316555360+317215936+318426304
1154.51+320188256+322004096+323398336+324434016+325544512+327113088+329404352
1150.01+332550656+336287648+339926752+342965216+345651328+348613408+352041888
1145.51+355605536+359144256+362959360+367323424+372100608+377002272+381931616
1141.01+386965088+392154880+397487168+402989856+408824096+415150944+421869344
1136.51+428652768+435365056+442216256+449404832+456862272+464477216+472279296
1132.01+480273600+488425120+496899328+505962080+515525792+525115296+534426016
1127.51+543674048+553269568+563361216+573819456+584443840+595047744+605498880
1123.01+615876672+626423424+637202496+648057920+659055232+670558976+682573440
1118.51+694469312+705754624+716660352+727607680+738612544+749564416+760539712
1114.01+771491968+782141888+792430848+802627584+812905664+823257280+833702656
1109.51+844093248+853935808+862942080+871493312+880114176+888782208+897132864
1105.01+905054464+912708160+920203136+927538304+934734272+941849536+948869696
1100.51+955643392+961991616+967924288+973686848+979573504+985761088+992216768
1096.01+998593408+1004331584+1009168256+1013422976+1017612672+1022034304
1092.16+1026802176+1031838336+1036669568+1040822592+1044582016+1048700416
1088.30+1053254976+1057490176+1060816704+1063260992+1064992384+1066235008
1084.44+1067597312+1069597184+1071836416+1073333440+1073741824+1073643968
1080.58+1073650048+1073670912+1073121792+1071520000+1068895936+1065726592
1076.73+1062392192+1058710720+1054259648+1049064640+1043511680+1037577792
1072.87+1030764160+1022999424+1014977536+1007114944+998700352+988789440
1069.01+977654272+966493184+955751232+944601472+932267200+919028480+905486976
1064.51+891644864+877365760+863098880+849384384+835974208+822209792+808029760
1060.01+793947200+780133312+766221568+752055424+737994496+724281472+710621568
1055.51+696779008+683186240+670412288+658222848+645767808+632701632+619562368
1051.01+607008704+595200704+583925824+572843712+561658176+550431936+539549056
1046.51+529012128+518307392+507410336+497187712+488152800+479543840+470384672
1042.01+460825760+451774464+443702208+436391296+429418016+422443424+415318688
1037.52+408154496+401210464+394703680+388681088+382887360+376898976+370716608
1033.02+364948000+359965184+355342656+350619392+346040416+341933920+338032064
1028.52+334051136+330298976+327088224+324162304+321218240+318493952+316403584
1024.02+314957888+313786208+312469056+310770304+308803520+306996768+305753664
1019.52+305192512+305220352+305663968+306281056+306795648+307068608+307238336
1015.02+307657472+308644608+310297344+312524832+315107776+317671808+319887136
1010.52+321939680+324577856+328475808+333662464+339632480+345794432+351893568
1006.02+358343872+365943104+374896000+384419584+393729248+403018976+412999136
1001.52+423842720+435094944+446339072+457586592+469152032+481314048+493999264
997.02+506798080+519356864+531686976+544097600+556880960+569919808+582569216
992.52+594177344+604705152+614394688+622943168+629637760+634188672+636785600
988.02+637511808+636350912+633495808+629061312+622810304+614641344+604990912
983.52+594444992+583296384+571579840+559232000+546281664+533139520+520399872
979.02+508120960+495765120+483059040+470354592+457967296+445758592+433640288
974.52+421961248+411080448+400860928+390843936+380847488+371214432+362393952
970.02+354394944+346818304+339372032+332119264+325248864+318888736+313129920
965.52+308036288+303584992+299627200+295838496+291863520+287738752+284026464
961.02+281203968+279048128+276915680+274500960+272048992+270004096+268610464
956.52+267707104+266846160+265744192+264563728+263603152+262889968+262310256
952.02+261920976+261810880+261765392+261440368+260884592+260577392+260807968
947.52+261224352+261220352+260647056+259934640+259572288+259710144+260177328
943.02+260652928+260840832+260689440+260476752+260619632+261314544+262313360
938.52+263052720+263161072+262839664+262590224+262661952+263013392+263588944
934.02+264288624+264935536+265618464+266685728+268015408+268788640+268431664
929.52+267382160+266559328+266514832+267269632+268508832+269710848+270462496
925.02+270756576+270794848+270678560+270481664+270338656+270289888+270307552
920.52+270524096+271087904+271822688+272392416+272728576+272989952+273263488
916.02+273555008+273883008+274185120+274306528+274226080+274136768+274264352
911.52+274733568+275490304+276189408+276327008+275763296+275044192+274922112
907.02+275524416+276188896+276219168+275687456+275281184+275421280+275858272
902.52+276154304+276179904+275946528+275400320+274679584+274235840+274321248
898.02+274625632+274716352+274624544+274711072+275098816+275451776+275344160
893.52+274800864+274375808+274516192+274912672+274823648+274084992+273364512
889.02+273269664+273584768+273571136+272769952+271395584+270146752+269614432
884.52+269731392+269878880+269647840+269319040+269451488+270130816+270802112
880.02+270808128+270071072+269210464+268856064+268905600+268734944+268120208
875.52+267568128+267636768+268240384+268757856+268634432+267841296+266896048
871.02+266358576+266286768+266309024+266212432+266159744+266300368+266510032
866.52+266645248+266788160+267027904+267113648+266567360+265300256+263991312
862.02+263565200+264250800+265388160+266149392+266146944+265506480+264799504
857.52+264712096+265279888+265666352+265141232+263836032+262200144+260541200
853.03+259734320+261098256+264469248+267576000+268596992+268329744+268502336
848.53+269052832+268717504+267474432+266763120+267544608+269234144+270567744
844.03+270851328+270399040+270105440+270670080+272286112+274564864+276495840
839.53+277058336+276415744+275708096+275177888+273717600+271103072+268990016
835.03+268560800+268815232+268427632+267809920+268035648+268714048+268185936
830.53+265360352+260881344+256758256+254809120+254959920+255181808+253584288
826.03+250439024+247771008+247050416+247711840+248037584+247099312+245424976
821.53+243911440+242837232+242050480+241378000+240607776+239646400+238762688
817.03+238073616+237032000+235304272+233808800+233707008+234619120+234999408
812.53+234121152+232536880+230730800+228663168+226814848+226439120+228139568
808.03+230824240+232633120+232594448+231152912+229604896+229222000+230250224
803.53+231642944+232199920+231868832+231278928+230642736+230176144
##END=
