##TITLE=octarelline 6 front
##JCAMP-DX=4.24
##DATA TYPE=INFRARED SPECTRUM
##DATE=31/1/2005
##TIME=16:55:35
##SAMPLING PROCEDURE=film
##ORIGIN=Vincent
##DATA PROCESSING=no operation
##XUNITS=1/CM
##YUNITS=ABSORBANCE
##RESOLUTION=2
##FIRSTX=4000.283
##LASTX=800.31372
##DELTAX=-0.64282227
##MAXY=0.23531245
##MINY=-0.0033909394
##XFACTOR=1
##YFACTOR=2.1915179e-010
##NPOINTS=4979
##FIRSTY=0.0037132252
##XYDATA=(X++(Y..Y))
4000.28+16943622+17320836+17306894+16960422+16540518+16298860+16379013+16667849
3995.14+16775415+16356743+15587163+15163620+15603592+16534563+16993780+16549213
3990.00+15786227+15523589+15853499+16205017+16147258+15859333+15789321+16037465
3984.86+16283259+16289691+16169291+16066402+15953876+15901959+16059496+16174411
3979.71+15736816+14805503+14110402+14097195+14468631+14821451+15129581+15421567
3974.57+15515494+15259916+14737316+14217232+14038073+14346794+14861079+15192426
3969.43+15420020+15929226+16688933+17162244+16982578+16334589+15650857+15236704
3964.28+15150766+15209566+15179094+15088160+15219683+15699072+16278734+16605434
3959.14+16537780+16136303+15540969+14945934+14578099+14527409+14630694+14644378
3954.00+14573458+14681742+15065307+15389427+15284316+14877265+14623316+14672104
3948.86+14710421+14451377+14024153+13777569+13862497+14069358+14059365+13745099
3943.71+13389258+13281164+13422200+13629253+13792557+13874986+13844893+13806474
3938.57+14052942+14738386+15572756+16071880+16113439+16044372+16097482+15923748
3933.43+15068522+13833950+13144300+13406145+14042356+14371897+14433173+14687455
3928.29+15312529+15970187+16056757+15278604+14135382+13496290+13571451+13865471
3923.14+14139904+14571554+14931058+14691501+14058533+13872488+14325497+14658658
3918.00+14232340+13259879+12520623+12670996+13672902+14790271+15426804+15767057
3912.86+16255152+16861782+17262092+17292476+16975550+16553859+16472032+16766600
3907.72+16771960+15984716+14602136+12757302+10284322+7774461+6501405+6663292
3902.57+7158043+7463204+8091815+8992448+9318187+9077645+9430930+11004452
3897.43+13129674+14903565+16017461+16538968+16649505+16586850+16337923+15437757
3892.29+13547309+11344540+10384773+11578228+14093269+16356978+17601348+17649734
3887.15+15957567+12362297+8603294+7376061+9307148+12375372+14644854+15864572
3882.00+16266228+15522993+13738439+12340783+12857285+15118629+17597298+19215008
3876.86+19962134+19931708+18762430+16473937+14218778+13480472+14508013+15838140
3871.72+15440138+12388327+7808139+4342435+4223587+7513002+12275295+16072238
3866.58+17194892+15393236+12215274+10213676+10812519+12914351+14367496+14593092
3861.43+14871315+16170126+17866884+18941302+19176364+18816208+18173816+17587286
3856.29+16356502+12143966+3509702-6784697-13180192-13198732-9156417-3642036
3851.15+2649169+8924340+13744147+16604482+18135790+18928900+19333922+19805958
3846.01+20336700+20063316+18348938+15910056+14272554+14206763+14998182+15374070
3840.86+14904041+13911861+12053053+8396765+3738562+1282950+3130141+7277897
3835.72+10398309+11865770+13151552+14751001+15570731+14897140+13572522+13144538
3830.58+14351672+16477748+18126134+18493794+17778210+16634855+15715861+15543352
3825.44+16214305+17210620+17826956+17451314+15380857+11324463+6630107+3962596
3820.29+4806886+8075685+11688130+14032839+13712033+10006030+4639231+1627165
3815.15+3589457+8975243+14300988+17624706+18998902+19163960+18820978+18589894
3810.01+18819668+19138916+18322714+15247655+10642217+7438069+8074618+11618860
3804.86+15081137+16714069+16295525+13416848+7918900+2037180-208586+2923709
3799.72+8984024+14322285+17115660+17423312+16235266+15021746+15048051+16363410
3794.58+17874154+18663700+18811200+18899564+19209998+19561158+19603984+19169088
3789.44+18490218+18061646+18118744+18387328+18423690+18030294+17317262+16634617
3784.29+16420698+16823184+17534374+18135432+18340954+17823378+16395093+14625815
3779.15+13621879+13855241+14783846+15789441+16790900+17835536+18744186+19285736
3774.01+19339766+18933192+18262152+17399720+16001503+13813848+11536406+10593291
3768.87+11704646+13992749+15679666+15612401+14237457+13105893+13256550+14318478
3763.72+15384903+16149997+16731936+16901572+16094743+14168098+11985196+10984379
3758.58+11735777+13163801+13828242+13648639+13670406+14442216+15173619+14092199
3753.44+9625817+2422800-3751210-5479748-4346022-4590213-6645553-6658738
3748.30-2347285+4017395+8692271+8917458+3192608-6941723-15305882-15473017
3743.15-8094199+560790+6255992+9050946+10476085+11403345+11913659+11510030
3738.01+9557569+6185964+2484771-300943-1267954+12639+2762127+4865024+4837672
3732.23+3729805+4034084+6659026+10084266+12543920+13685510+13943859+13443249
3727.08+12167499+10697557+10033454+10608253+11760967+12340546+11813368+10804562
3721.94+10443668+11113375+12092627+12585763+12655304+12830416+13281878+13809922
3716.80+14234838+14404499+14213306+13772217+12963572+10911928+7043649+2853917
3711.66+1063001+2300283+4391326+5629740+6666256+8560468+10850167+12487220
3706.51+13285682+13636270+13799930+13930773+13962535+13335865+11639416+9551872
3701.37+8439943+8996601+10739004+12688827+14107903+14789675+15010917+15129700
3696.23+15144578+14741362+13814324+12805329+12265667+11949903+10828433+8570670
3691.09+6367497+5113463+3506744-50081-4029660-4578900-408884+5563288+10130804
3685.30+12666122+13943264+14386055+14207714+13974906+14125747+14427937+14304081
3680.16+13505804+12382741+11523932+10873922+9195242+5033410-1302895-6950433
3675.01-8445199-4838852+1571723+7224904+9376693+7316071+2844217-763845-1382453
3669.23+539759+3622235+7213998+10797316+13412686+14600945+14905709+14960215
3664.09+14917728+14908921+15112439+15384070+15542398+15721576+15931845+15884219
3658.94+15504423+14725891+12890572+9724810+6818555+6479363+8933714+12213255
3653.80+14551921+15353476+14419490+11705479+7661692+3136767-779194-2791308
3648.66-2239920+23033+2608009+5191505+8236160+11630147+14591545+16580659
3643.52+17586094+17816346+17613028+17437014+17591338+17994300+18278602+18120650
3638.37+17595748+17216576+17447382+18182282+18809890+18755632+17952462+17011412
3633.23+16810200+17560590+18286114+17443330+14050681+8476479+2738470-192760
3628.09+1442993+6478770+12030235+16148210+18713182+20364266+21456042+21983880
3622.95+21931566+21410190+20483966+18969206+16745040+14379869+12962502+13079498
3617.80+14434481+16493828+18738820+20377274+20790468+20287174+19647408+19141062
3612.66+18756826+18864742+19573088+19967026+19117328+17485990+16484059+16852846
3607.52+18194202+19848072+21542372+23272064+24919654+26079646+26357812+25893548
3602.38+25319444+25118820+25273502+25516734+25618200+25518888+25429394+25582064
3597.23+25765862+25537434+24986996+24722062+25023838+25622508+26332674+27252416
3592.09+28310846+29101090+29149994+28135560+26191436+24152360+23030060+23101048
3586.95+23960940+25382134+27341754+29380160+30782564+31428096+31867974+32534994
3581.81+33284640+33768900+33956824+34129140+34386204+34400984+33889056+33180976
3576.66+32945210+33414490+34229608+34933004+35304760+35379312+35431616+35753916
3571.52+36251528+36446184+35993744+34953680+33577872+32164360+31079272+30643530
3566.38+30989402+32078406+33670976+35296944+36565176+37516644+38385228+39094200
3561.24+39347688+39218776+39245036+39803180+40579812+40944796+40785872+40715336
3556.09+41277272+42200120+42697424+42354088+41459520+40654332+40511100+41263528
3550.95+42612824+43897948+44628100+44763292+44506208+44083208+43780080+43922824
3545.81+44655040+45803076+47012496+48018968+48800648+49471088+50043392+50381404
3540.67+50415816+50280844+50190464+50250072+50444164+50740920+51144984+51648056
3535.52+52139496+52479196+52697156+53002140+53511872+54096268+54546912+54757452
3530.38+54697108+54439580+54209524+54194840+54341116+54557956+54951508+55549080
3525.24+56022168+56128364+56202736+56722528+57518588+57977308+57998224+58216800
3520.09+59127856+60400480+61272456+61376380+60988856+60643068+60684720+61163420
3514.95+61946648+62834052+63623300+64194220+64566256+64800324+64868788+64788120
3509.81+64846340+65425908+66485388+67469048+67903064+67889000+67884240+68208928
3504.67+68871896+69688640+70418936+70888000+71063312+71032336+70971736+71155744
3499.52+71772816+72681408+73507440+74080968+74555072+75018008+75231960+75013088
3494.38+74708744+74919864+75683632+76322720+76365320+76260112+76740992+77762192
3489.24+78588504+78738688+78374680+77977560+78043776+78846984+80069480+80970832
3484.10+81213488+81161064+81189856+81260000+81332856+81613344+82159928+82782384
3478.95+83434616+84219784+84988008+85413672+85468176+85454488+85594840+85876424
3473.81+86190624+86431448+86577304+86830648+87513096+88667584+89874408+90589432
3468.67+90632336+90289368+90009888+90061792+90410896+90803472+90973760+90893384
3463.53+90828456+91009496+91296432+91382888+91274416+91270080+91518960+91924872
3458.38+92438408+93092072+93765920+94275096+94669680+95103240+95447040+95416680
3453.24+95077472+94849952+94945616+95143520+95280840+95558216+96094272+96511904
3448.10+96402536+96067992+96299104+97354264+98556472+99086872+98881864+98560312
3442.96+98665336+99223592+99936160+100518496+100820744+100849456+100814392
3438.46+100971256+101294192+101452200+101267960+101009040+101095064+101648888
3433.96+102400024+102916768+102922128+102545432+102205624+102110480+102077016
3429.46+101973928+102034744+102477392+103123192+103621208+103773688+103537328
3424.96+103067448+102806536+103095448+103675360+103956168+103751280+103363104
3420.46+103095072+103097680+103456568+104009560+104278848+103997000+103535456
3415.96+103418224+103650464+103891552+104082520+104458752+105047664+105516776
3411.46+105550896+105200360+104815640+104698704+104801568+104798568+104546912
3406.96+104318304+104391016+104581656+104533224+104311216+104350936+104819248
3402.46+105419720+105826000+106008920+106090784+106093400+105871232+105202368
3397.96+104021272+102648680+101713424+101690680+102461592+103382136+103860688
3393.46+103897528+103898408+103994008+103882224+103434536+102995032+102837528
3388.96+102805048+102758528+102853456+103080384+103031240+102484728+101819360
3384.46+101600288+102030512+102854576+103463032+103248248+102244040+101300288
3379.96+101267336+102125656+103094952+103382520+102755424+101668160+100881640
3375.46+100785320+101157208+101674256+102272792+102865760+103202576+103293160
3370.96+103432176+103596200+103403304+102834912+102358232+102157616+101898696
3366.46+101400736+100920296+100620648+100321432+99876528+99400184+99102512
3361.96+99172176+99689832+100392248+100768416+100573064+100031328+99476824
3357.46+99089104+98971144+99083024+99134928+98970400+98931408+99417208
3352.96+100195064+100606112+100392248+99977288+99924984+100318080+100701808
3348.46+100608848+100115680+99727960+99698152+99735680+99466392+98844368
3343.96+98053248+97343352+97005040+97172888+97597704+97881496+97891680+97772416
3338.82+97688280+97694608+97769944+97864240+97986360+98141248+98177248+97924936
3333.68+97533552+97302152+97210976+97057896+96933224+97029232+97119920+96873944
3328.53+96530264+96656768+97304752+97951992+98153792+97857168+97175864+96282744
3323.39+95517440+95327432+95909048+96872208+97408360+97053304+96225576+95784696
3318.25+96108416+96787856+97104040+96637168+95623176+94862592+95016992+95934832
3313.11+96916488+97542608+97844888+97857296+97550920+97133680+96900856+96853112
3307.96+96852488+97028504+97633432+98588872+99452104+99783744+99411488+98519728
3302.82+97602304+97161728+97304888+97713976+98001384+97981896+97676000+97257880
3297.68+97011256+97133824+97540008+97911904+97935352+97499176+96842936+96485496
3292.54+96741856+97245712+97299296+96772352+96248888+96185152+96354416+96279152
3287.39+95840360+95238328+94665216+94176496+93752792+93431200+93353192+93517992
3282.25+93557128+93080312+92239896+91612608+91518720+91756352+91928576+91784072
3277.11+91345168+90853064+90436992+89863784+88934288+87977328+87479392+87411128
3271.97+87416440+87384712+87309536+86949744+86197648+85459304+85118960+84908112
3266.82+84260456+83065056+81721176+80637896+79933464+79526192+79323448+79264800
3261.68+79192888+78855088+78202520+77505344+76925792+76255200+75368752+74614072
3256.54+74343032+74350872+74178952+73678456+72974528+72204704+71534232+71111424
3251.40+70778072+70218592+69524704+69188064+69342184+69450936+68968032+67987896
3246.25+67012404+66356520+66028228+65963876+66104928+66311328+66383020+66195912
3241.11+65738824+65037960+64157620+63272780+62595828+62169800+61838912+61495532
3235.97+61238100+61147344+61044160+60700432+60232924+59980644+59980764+59877040
3230.82+59479956+59058728+58824736+58523236+57943740+57539624+57892168+58688216
3225.68+58948360+58333700+57567960+57357360+57481868+57284044+56572056+55734340
3220.54+55230592+55199016+55399548+55487372+55414612+55433320+55608364+55629748
3215.40+55291808+54825576+54517284+54312836+54055720+53778984+53539780+53276948
3210.25+53047272+53069596+53323664+53391736+52947420+52232744+51779724+51758868
3205.11+51811248+51558096+51057352+50630036+50385884+50163208+49879740+49678068
3199.97+49685216+49834556+49978344+50002572+49797252+49307964+48683580+48222656
3194.83+48073432+48099452+48086624+47985332+47877996+47831892+47865408+48005180
3189.68+48268524+48578996+48731400+48503828+47882232+47204940+46961572+47320104
3184.54+47883800+48041964+47575376+46852840+46393668+46335388+46426560+46472752
3179.40+46549056+46723192+46836520+46752824+46590408+46525352+46578680+46742420
3174.26+46998224+47075636+46596456+45684136+45027052+45126624+45776116+46421480
3169.11+46735048+46739764+46623300+46557396+46596456+46763828+47151964+47763036
3163.97+48326740+48546312+48463516+48348284+48329888+48366440+48420300+48459280
3158.83+48426360+48289704+48002028+47521900+47005600+46781728+46934604+47173004
3153.69+47276432+47334624+47427896+47451488+47348048+47139140+46745444+46133592
3148.54+45587560+45460532+45694652+45890232+45759680+45320212+44774648+44368740
3143.40+44264864+44428896+44660120+44706992+44366084+43599920+42663512+42002364
3138.26+41887752+42139184+42293028+42089600+41728388+41575916+41692320+41826348
3133.12+41785088+41561920+41157760+40579580+40026152+39760400+39756908+39731364
3127.97+39547588+39369504+39367328+39448180+39375768+39093716+38786416+38583584
3122.83+38359816+37957752+37512788+37333920+37543128+37971960+38321884+38349700
3117.69+38037940+37659172+37497504+37533496+37572856+37565632+37555404+37473188
3112.55+37244008+36959740+36744936+36589480+36459180+36384224+36348132+36237696
3107.40+35920132+35275660+34320220+33440440+33279472+34104868+35354540+36017444
3102.26+35555236+34452304+33775028+34085040+34890568+35347204+35246200+35005740
3097.12+34967388+35154580+35478636+35740564+35645308+35201596+34787784+34572744
3091.98+34301472+33929788+33857812+34217828+34539564+34467928+34221068+34051872
3086.83+33857452+33607544+33586160+33890136+34170356+34135748+33904796+33686960
3081.69+33482846+33230346+32974152+32814066+32865824+33253406+33959464+34757488
3076.55+35374740+35582056+35188608+34245468+33235990+32752938+32925516+33377134
3071.40+33643228+33485610+33003698+32568256+32421890+32325596+31976846+31643522
3066.26+31798358+32239876+32308306+31904344+31556512+31555314+31711936+31838448
3061.12+31852132+31607038+31185942+31053114+31404698+31748182+31570916+31039196
3055.98+30610662+30380112+30151514+29871498+29682166+29734564+30040224+30390190
3050.83+30491306+30301434+30073084+29973188+29864544+29544044+29024974+28547262
3045.69+28409580+28722348+29275382+29791640+30221796+30597104+30728584+30441286
3040.55+29957238+29638522+29501242+29321178+29028690+28666622+28194628+27691124
3035.41+27527032+27977540+28787902+29384954+29468872+29237140+29066808+29095574
3030.26+29173368+29157786+29092216+29052304+29031090+29026414+29045472+29013228
3025.12+28897564+28877310+29114874+29454604+29614066+29537808+29323812+29031206
3019.98+28805402+28887262+29264594+29595598+29628330+29441416+29199740+28965282
3014.84+28806120+28786822+28832488+28795932+28686154+28700656+28985782+29403176
3009.69+29609388+29477624+29295642+29328608+29423554+29401376+29540564+30136764
3004.55+30851790+31105428+30894620+30664642+30608262+30661882+30916454+31473342
2999.41+32079606+32400638+32520466+32779600+33224698+33565020+33647192+33658124
2994.27+33800860+34000800+34096816+34147168+34304116+34535480+34726360+34953680
2989.12+35365724+35930236+36541476+37199596+37850836+38304060+38533600+38787984
2983.98+39195640+39560848+39708828+39780168+40025308+40536536+41209856+41817900
2978.84+42189988+42416720+42775516+43389716+44121012+44811136+45402396+45879112
2973.70+46301532+46844376+47595944+48419580+49139536+49731360+50235292+50646760
2968.55+50958452+51176372+51332860+51579800+52121424+52885912+53479712+53673640
2963.41+53710780+53909096+54233076+54519716+54819872+55232176+55593788+55663636
2958.27+55463932+55191000+54952840+54797644+54806388+54898800+54771900+54279816
2953.13+53675220+53212520+52771520+52206672+51771476+51789420+52084796+52177328
2947.98+51908976+51541004+51316252+51244128+51261704+51370436+51601984+51973604
2942.84+52428008+52802212+52969136+53036112+53212880+53499492+53687716+53720604
2937.70+53867948+54393080+55140480+55641280+55665452+55506324+55537424+55664608
2932.56+55538880+55201204+55049752+55175336+55203872+54930136+54614900+54529548
2927.41+54636268+54852416+55162576+55332988+55017688+54310284+53734928+53554344
2922.27+53525220+53416852+53291628+53134500+52673508+51812460+50865984+50138616
2917.13+49584084+49085048+48796168+48911064+49228292+49252148+48751616+48028416
2911.98+47527952+47290228+46983340+46443852+45913684+45626236+45423188+45036356
2906.84+44526868+44139248+43863764+43490040+43016320+42638652+42378340+42086224
2901.70+41824780+41863260+42176708+42295204+41861212+41179948+40967220+41557220
2896.56+42496604+42981192+42653128+41867484+41173796+40713288+40258548+39695208
2891.41+39208892+39039148+39230944+39623268+39936960+39958540+39771012+39685444
2886.27+39817168+39914788+39754616+39480232+39345884+39372512+39472400+39657488
2881.13+39910684+40074364+40078944+40066768+40110640+40062556+39809332+39472164
2875.99+39213476+39047584+38952892+38995780+39218652+39527708+39746184+39727740
2870.84+39419380+38890612+38327664+37908504+37594044+37096452+36218568+35250532
2865.70+34765912+34946948+35373656+35607072+35643028+35633048+35529384+35299468
2860.56+35146288+35208448+35247884+34928196+34264572+33616916+33300856+33321756
2855.42+33472878+33608988+33758808+33954776+34072416+33998396+33860576+33882808
2850.27+34053672+34104744+33839788+33353228+32867146+32473758+32161478+32018262
2845.13+32134346+32272048+31956564+31098466+30219756+29833246+29839482+29783606
2839.99+29478222+29123742+28979428+29092458+29283532+29345032+29252128+29072200
2834.85+28735050+28168630+27635068+27519966+27767546+27939686+27834748+27645848
2829.70+27545234+27502720+27458644+27351336+27069798+26657804+26412038+26549702
2824.56+26921800+27248582+27467746+27685134+27905064+27988682+27878470+27725862
2819.42+27721790+27836066+27830674+27560208+27133862+26769864+26603690+26641640
2814.28+26757294+26742446+26507920+26222312+26149066+26386180+26804702+27171342
2809.13+27270018+27064770+26771300+26659600+26747114+26812126+26712754+26569094
2803.99+26581664+26785904+27047168+27216130+27238522+27191580+27255288+27551702
2798.85+27965084+28218230+28186480+28000662+27792820+27538528+27231458+26989332
2793.71+26876182+26809494+26761602+26855350+27166314+27574462+27866250+27876314
2788.56+27560328+27068958+26729278+26848284+27453132+28219430+28695984+28717912
2783.42+28573748+28642412+28910508+29066686+29004120+28938918+29038160+29178644
2778.28+29149276+28946946+28853340+29188112+29893804+30481110+30573954+30353488
2773.14+30240986+30362484+30596384+30878062+31135906+31237420+31256498+31498908
2767.99+32031470+32500172+32623732+32547600+32561410+32743574+33009106+33285600
2762.85+33552402+33849520+34280560+34901148+35607432+36179592+36466036+36547488
2757.71+36693436+37078760+37578400+37962688+38183280+38313932+38347652+38315020
2752.56+38457004+38990600+39819096+40692064+41488712+42160060+42598344+42825844
2747.42+43113980+43706300+44533152+45376416+46136132+46836520+47500852+48140956
2742.28+48771716+49409692+50119468+50996508+52023564+53046788+53986048+54932076
2737.14+55941732+56916412+57791468+58684204+59734240+60950120+62243908+63486080
2731.99+64579556+65621740+66878256+68432656+70029280+71464440+72881768+74470320
2726.85+76151360+77808632+79554720+81529656+83629152+85632584+87445936+89136904
2721.71+90870984+92829152+95075608+97525736+100083248+102686488+105225528
2717.21+107614784+109959232+112448352+115114088+117865408+120665728+123538168
2712.71+126506912+129627912+132921960+136276528+139616368+143075104+146763104
2708.21+150513808+154109472+157603328+161159072+164794928+168483456+172272704
2703.71+176128976+179909872+183618896+187463456+191527136+195629664+199600144
2699.21+203528080+207631440+211940736+216212656+220237952+224178624+228407296
2694.71+232992816+237581648+241905136+246143760+250603808+255222608+259655648
2690.21+263809952+268046512+272720032+277668736+282423104+286859552+291279968
2685.71+295829280+300316352+304717632+309332576+314238080+319058720+323506432
2681.21+327739936+332080064+336696416+341573472+346450624+350908128+354850048
2676.71+358726528+363006752+367693792+372556928+377475104+382356992+387076192
2672.21+391663136+396232864+400672448+404777184+408706752+412915776+417599872
2667.71+422514784+427352480+432006560+436458240+440669248+444716576+448843744
2663.21+453240608+457817664+462354336+466806144+471295904+475844000+480339040
2658.71+484747200+489125056+493470272+497778784+502148960+506608864+510991456
2654.21+515201504+519398272+523751040+528206912+532653888+537072384+541475200
2649.71+545894784+550400704+554961984+559455040+563933184+568595072+573355008
2645.21+577851712+582010176+586169536+590551936+595002240+599301504+603417344
2640.71+607499136+611844288+616686144+621820736+626713344+631089856+635145024
2636.21+639170112+643320704+647653248+652071744+656357952+660508608+664786240
2631.71+669285248+673782016+678111744+682346624+686566272+690799872+695121536
2627.21+699484416+703627584+707425472+711120000+715039616+719331328+723979840
2622.71+728753600+733205824+737093440+740703424+744479936+748570240+752922240
2618.22+757455104+761912832+765966400+769652864+773341504+777201024+781100480
2613.72+784996352+788983424+793009088+796943488+800824256+804710080+808471936
2609.22+812046336+815704256+819710464+823905280+827924736+831685760+835369280
2604.72+839034304+842574656+845985536+849385344+852780928+856066624+859257536
2600.22+862507456+865855744+869192128+872446912+875644480+878777984+881822080
2595.72+884826560+887861504+890906240+893909696+896867264+899754368+902521280
2591.22+905221632+907972352+910753536+913396352+915867136+918388608+921202752
2586.72+924295488+927418688+930309312+932865856+935148608+937299648+939486208
2582.22+941819392+944232128+946537280+948692608+950890880+953242816+955575680
2577.72+957747392+959945344+962359744+964778496+966840256+968540160+970152192
2573.22+971781696+973349888+974895872+976598528+978540928+980639808+982724160
2568.72+984548928+985876608+986747904+987569728+988765376+990372032+992087232
2564.22+993663552+995130112+996637056+998228928+999859712+1001471552+1002960064
2559.72+1004154752+1005028608+1005829312+1006834304+1008058304+1009341440
2555.86+1010600640+1011833664+1013010240+1014095040+1015085056+1016001152
2552.00+1016925504+1017966208+1019049536+1019955904+1020708224+1021657472
2548.15+1022982720+1024433984+1025723840+1026796992+1027622528+1028168256
2544.29+1028683200+1029543680+1030745920+1031952000+1032987904+1033902912
2540.43+1034661312+1035223808+1035791616+1036564352+1037396608+1038049792
2536.58+1038646080+1039526080+1040715136+1041855232+1042700608+1043476096
2532.72+1044538752+1045811328+1046816576+1047330496+1047727232+1048513600
2528.86+1049715840+1050907392+1051734336+1052284544+1052937152+1053870912
2525.01+1054784448+1055258880+1055334976+1055516544+1056213568+1057393152
2521.15+1058735488+1059904768+1060718784+1061258112+1061746112+1062245760
2517.29+1062640064+1062952576+1063423488+1064202176+1065155840+1066053824
2513.44+1066788736+1067428096+1068112320+1068882176+1069617664+1070183744
2509.58+1070545152+1070686912+1070619072+1070561792+1070785728+1071183808
2505.72+1071346112+1071211648+1071211200+1071615872+1072148352+1072431616
2501.86+1072477120+1072533568+1072738176+1073071232+1073448000+1073729664
2498.01+1073741824+1073406208+1072839808+1072302656+1072002752+1071900544
2494.15+1071713216+1071201664+1070385984+1069433600+1068432704+1067422784
2490.29+1066553216+1065990848+1065663616+1065288256+1064687232+1063933504
2486.44+1063136512+1062243520+1061157184+1059914112+1058624064+1057275264
2482.58+1055764352+1054151808+1052693568+1051499904+1050320576+1048868544
2478.72+1047222656+1045676864+1044325312+1043046080+1041746304+1040358656
2474.87+1038757312+1036923968+1035022912+1033139136+1031161600+1029052224
2471.01+1026950208+1024930944+1022936960+1020932352+1018900352+1016774720
2467.15+1014577216+1012456512+1010446592+1008431296+1006378752+1004303744
2463.29+1002076224+999643328+997272832+995198976+993266560+991251584+989202176
2458.80+987196608+985158784+983098048+981120576+979165184+977130176+975137024
2454.30+973260544+971285696+969108864+966988032+965046592+963029440+960810432
2449.80+958621312+956595776+954625344+952742464+951116096+949671872+948153920
2445.30+946484608+944749952+942994816+941270720+939640704+938043776+936424256
2440.80+934944192+933742208+932620352+931294208+929783360+928247552+926689664
2436.30+925090176+923612032+922435264+921554560+920814784+920021440+919025216
2431.80+917845312+916638848+915482112+914321024+913162880+912115968+911215808
2427.30+910372416+909477696+908463232+907399552+906545344+906052672+905628224
2422.80+904823488+903665344+902628288+901988672+901577280+901133248+900566592
2418.30+899873600+899079872+898250496+897420224+896560704+895662080+894773568
2413.80+893994304+893458752+893176768+892837952+892075520+890964544+889930752
2409.30+889155200+888450880+887702656+886958592+886129984+885079168+883956928
2404.80+883059584+882376128+881615936+880588160+879336576+877998592+876692544
2400.30+875441088+874181504+872937088+871867712+870988544+870010048+868664576
2395.80+867076928+865602368+864416768+863383168+862257472+860938176+859540416
2391.30+858211328+856908032+855459008+853815040+852067072+850237184+848277504
2386.80+846264704+844356480+842538688+840604480+838493824+836483392+834883392
2382.30+833599296+832173312+830302720+828147904+826041600+824051200+821978112
2377.80+819666176+817137280+814519360+811974848+809635584+807479232+805331456
2373.30+803038912+800576000+797980608+795305856+792641472+790058432+787514432
2368.80+784912576+782214016+779420608+776512704+773533184+770663680+768074560
2364.30+765725568+763446592+761159936+758875648+756541440+754087104+751607104
2359.80+749303936+747196288+745061184+742727744+740307200+738029888+735933760
2355.30+733849408+731701376+729652608+727858304+726201536+724447552+722566656
2350.80+720665536+718671936+716363776+713698624+710867648+708011072+705116608
2346.30+702205056+699385920+696671744+693932224+691071552+688163584+685355328
2341.80+682731840+680257280+677788864+675148736+672270528+669301888+666512320
2337.30+664031552+661724096+659384640+656995008+654682624+652496704+650349632
2332.80+648147456+645838144+643390400+640850816+638389696+636141440+634028224
2328.30+631829440+629432768+626937408+624513536+622216256+619977792+617753152
2323.80+615601024+613565696+611559296+609446720+607216448+604955904+602698752
2319.30+600392000+598015104+595657536+593454528+591451072+589523200+587461952
2314.80+585175872+582771712+580414912+578137280+575853824+573529024+571232128
2310.30+569021376+566835968+564564672+562194816+559840000+557618112+555536512
2305.80+553493312+551376000+549125248+546737984+544270592+541838912+539550016
2301.30+537372416+535128096+532696096+530153248+527662528+525313376+523156288
2296.80+521227328+519384288+517317664+514921344+512490496+510327328+508303776
2292.30+506063936+503533664+500990368+498686720+496588672+494489152+492273920
2287.80+490061440+488065280+486289824+484442208+482255008+479807680+477386016
2283.30+475122816+472944832+470791616+468666976+466526784+464320608+462111616
2278.80+459960128+457768672+455464480+453237600+451309472+449559840+447696064
2274.31+445693280+443741536+441843520+439837600+437740224+435739904+433891776
2269.81+432089728+430263744+428392640+426437376+424408512+422390688+420410176
2265.31+418395936+416327488+414266112+412246816+410260320+408322240+406428000
2260.81+404505376+402504064+400455616+398376352+396245920+394149088+392270592
2256.31+390635008+389006528+387160224+385152736+383218592+381487936+379891968
2251.81+378253248+376402368+374306624+372152416+370193472+368497984+366936320
2247.31+365393088+363822624+362144544+360299840+358389920+356588608+354943840
2242.81+353387232+351834016+350189440+348373728+346437408+344508736+342640640
2238.31+340845120+339178368+337610816+335960192+334145280+332323776+330623744
2233.81+328972672+327331776+325804000+324388576+322890912+321198336+319444224
2229.31+317839840+316473088+315253728+313981312+312541568+311043648+309640544
2224.81+308244192+306616320+304727424+302849088+301255136+299947616+298704096
2220.31+297322304+295783616+294173792+292562272+291037536+289739392+288689024
2215.81+287684032+286492384+285039264+283357952+281571936+279958272+278710752
2211.31+277605056+276226336+274536896+272886912+271482624+270192384+268859264
2206.81+267519184+266274352+265137744+264014240+262805984+261518400+260220752
2202.31+258890416+257456992+256011984+254750576+253677456+252619616+251518976
2197.81+250429168+249280160+247948464+246515728+245211536+244146160+243267504
2193.31+242432480+241398896+239964192+238249312+236652912+235407632+234360912
2188.81+233280064+232160112+231100784+230074272+228969776+227788672+226646256
2184.31+225586160+224524528+223385968+222213984+221113456+220143984+219289088
2179.81+218461616+217516592+216345440+215006976+213708624+212618096+211711872
2175.31+210848000+209952064+209050384+208132672+207081920+205822416+204476368
2170.81+203269184+202288896+201425056+200522000+199532224+198526240+197612336
2166.31+196840832+196161792+195488496+194794928+194101232+193365584+192463968
2161.81+191358528+190188032+189090352+187993248+186770880+185553536+184618656
2157.31+183961680+183253776+182298592+181274912+180428720+179756208+179112352
2152.81+178436672+177750480+177028096+176190448+175246928+174384736+173797696
2148.31+173398128+172866272+172055232+171147824+170316752+169510624+168674848
2143.81+167884688+167134400+166288224+165349408+164495616+163777280+163030480
2139.31+162160144+161302320+160643184+160197600+159806032+159282560+158553440
2134.81+157668032+156737776+155897152+155242368+154723648+154186064+153592080
2130.31+153053408+152587072+152042016+151362720+150685456+150106304+149566128
2125.81+148990960+148364688+147675856+146922848+146145904+145392000+144738624
2121.31+144288624+143991856+143567648+142818016+141911456+141155728+140619024
2116.81+140138864+139586848+138995168+138482496+138088832+137690848+137150256
2112.31+136527696+135984144+135518768+135016848+134471936+133943720+133420200
2107.81+132910344+132488376+132103120+131571256+130850480+130073360+129308024
2103.31+128554688+127926240+127529920+127249152+126889720+126442576+126018968
2098.81+125656224+125298848+124874728+124355120+123830976+123436208+123123968
2094.31+122682216+122062032+121464424+121023920+120628568+120131776+119543640
2089.82+118954304+118436104+118045160+117807488+117675248+117555672+117398624
2085.32+117210896+116981704+116635152+116112056+115475520+114852472+114276424
2080.82+113701784+113159944+112732664+112395592+112020344+111555184+111070912
2076.32+110641960+110250808+109790448+109184272+108533120+108047824+107746856
2071.82+107406896+106938720+106566120+106453568+106417176+106208304+105834472
2067.32+105413744+104936696+104354168+103746176+103250856+102896616+102592576
2062.82+102257232+101903176+101574288+101233896+100840632+100506576+100399096
2058.32+100450032+100372872+99984488+99364920+98681968+98068024+97623880
2053.82+97385904+97270408+97130960+96824944+96266256+95554008+94982544+94753560
2048.67+94732000+94648240+94431432+94174872+93915648+93605792+93197936+92633080
2043.53+91884904+91096432+90550368+90395448+90465056+90433408+90148192+89740432
2038.39+89395768+89110960+88780984+88424504+88124656+87828160+87436560+87009352
2033.25+86674296+86418872+86160648+85898384+85626048+85287888+84960136+84837232
2028.10+84900104+84830200+84402576+83745960+83138464+82749504+82616496+82674248
2022.96+82744336+82634360+82308288+81917528+81648432+81516360+81317712+80858240
2017.82+80254216+79876896+79910344+80109080+80076864+79658248+78998288+78359688
2012.68+77957656+77838848+77838976+77738728+77498344+77248896+77064808+76869056
2007.53+76600536+76334376+76167192+76075128+75963320+75779840+75510728+75140064
2002.39+74714400+74376872+74222112+74146952+73971232+73685080+73457808+73367208
1997.25+73270504+73007000+72624808+72280528+71989608+71593512+71001120+70361784
1992.11+69945832+69856632+69899576+69801072+69519808+69248728+69140968+69190136
1986.96+69360904+69602992+69720696+69496440+69018048+68609352+68432168+68416640
1981.82+68529008+68740680+68785808+68365912+67603360+66956940+66683396+66665308
1976.68+66692444+66675212+66602404+66513848+66485260+66542432+66614012+66593856
1971.54+66400732+66024444+65572892+65178696+64783480+64161028+63277048+62491108
1966.39+62258044+62658976+63307540+63709904+63681852+63412664+63170584+63045964
1961.25+63002680+63022184+63063040+62992676+62742368+62457584+62313988+62241832
1956.11+62029152+61649308+61290604+61085212+61002260+60982040+60977892+60892384
1950.97+60653664+60360540+60178012+60149276+60205652+60236940+60073784+59633812
1945.82+59151832+58953476+58914652+58557672+57805460+57215108+57272008+57814336
1940.68+58351348+58642104+58768276+58841160+58816100+58579444+58176180+57863712
1935.54+57865660+58131656+58440268+58632132+58668384+58565340+58380540+58167908
1930.40+57908224+57576472+57261188+57108120+57154196+57294008+57409760+57465696
1925.25+57401252+56993840+56079768+55011260+54541204+55006396+55945504+56690560
1920.11+56813332+55947444+54073688+52245604+52003796+53513208+55253916+55967980
1914.97+55886816+55803592+55938696+56091180+56134928+56014876+55722192+55414124
1909.82+55248332+55156996+55000444+54815252+54742760+54831892+54977740+55011136
1904.68+54912404+54904752+55128084+55335536+55223552+54891876+54658856+54608708
1899.54+54631052+54686300+54778340+54856300+54836504+54607252+54137540+53717576
1894.40+53746332+54125888+54332136+54194592+54001224+53758108+53114604+52170172
1889.25+51620288+51887632+52662708+53421220+53906428+54075024+53993336+53826068
1884.11+53757016+53898776+54264512+54683260+54837964+54572404+54100512+53774860
1878.97+53742332+53908368+54130132+54345124+54538408+54639552+54556860+54321816
1873.83+54092504+53964804+53908004+53806292+53312744+51925952+49709560+47759412
1868.68+47268696+48224956+49669832+50982572+52140464+53058796+53512476+53637476
1863.54+53865036+54325704+54721024+54787328+54618908+54492516+54532948+54623524
1858.40+54612840+54492268+54344400+54231012+54184876+54194232+54216084+54276536
1853.26+54439092+54596688+54550064+54355448+54259540+54247768+54085220+53800464
1848.11+53729348+54044064+54363460+53655072+50822716+46287508+42846968+43380896
1842.97+47305352+51263524+53210452+53786144+54182576+54549700+54631776+54470180
1837.83+54144700+53730440+53542692+53803140+54252860+54470664+54329832+54008628
1832.69+53722788+53312620+52106748+49818568+47600064+47260352+49146796+51776328
1827.54+53545244+53786264+52573196+50710984+49663412+50351596+52118516+53624852
1822.40+54331412+54579084+54751988+54911192+54956368+54777612+54367344+53882024
1817.26+53532620+53434084+53586504+53885672+54148708+54235380+54092992+53640024
1812.12+52799784+51815728+51312740+51780088+52965376+54010568+54325580+54186584
1806.97+54228952+54528456+54631536+54365156+53949880+53384336+52469608+51416620
1801.83+50652088+50080344+49388496+48942780+49458012+50834348+52131004+52645244
1796.69+52467304+52168720+52178180+52041512+50410360+46684856+42651324+41247004
1791.55+43263672+46728636+49684008+51726744+52965256+53362612+53278036+53192012
1786.40+52776372+51518452+50111112+49884224+50959304+52199644+52712084+52397444
1781.26+51553976+50785760+50732924+51341468+52023200+52563368+52981144+52883612
1776.12+52130032+51415292+50761032+48428048+43282624+37544692+35252452+37833500
1770.98+42912868+47258652+48995932+48008684+46073144+45838376+48196032+51298920
1765.83+53022640+53207660+52846972+52108080+50185256+47003912+44308344+44328640
1760.69+47170348+50507656+52229112+52147616+50961120+49186760+47836004+48352640
1755.55+50647728+52870020+53916012+54097356+52992308+49423864+44522272+42014428
1750.41+43627208+46789952+48620880+49205280+49974464+51258432+52475556+53219428
1745.26+53371840+53009904+52551360+52602672+53487360+54631776+54425864+51722980
1740.12+48004088+46684856+49093760+52888944+55438660+56000052+53918564+47757232
1734.98+38049860+29392264+27472654+33415694+42819328+50319608+53467096+53322688
1729.83+52731124+53576312+55419224+56829492+57233472+57056208+56797892+56569752
1724.69+56300068+56007584+55888396+56213428+56992992+57733464+57703060+56270904
1719.55+52709412+46406120+38630196+33643708+35177548+41228192+46277956+48280020
1714.41+49766124+52844916+56414064+58791516+59856712+59973704+59404856+59070296
1709.26+59830168+60998476+61131624+59882760+58098208+56801412+56617392+57531116
1704.12+59181400+61482860+63608796+62390908+54577256+42171880+33887976+37354984
1698.98+49913416+62148348+67038184+63136084+54668936+50296228+56272484+69131432
1693.84+80571584+86928144+90067856+92549912+94866184+96939064+99483024
1689.34+102806304+106264136+109725392+113451464+115682008+113013120+105021624
1684.84+97354512+97635560+107147680+120300200+131713520+139567456+144479312
1680.34+148112896+152004768+156561008+161257728+165342352+167662688+167090224
1675.84+164738848+164831632+170798336+180559408+188769520+192977808+195091952
1671.34+197514208+199867200+200837152+201782592+205969728+214139168+223324368
1666.84+230594896+235768784+240145248+244107280+246843504+248166544+249839920
1662.34+254256608+261552896+269345664+275747616+281003584+285962752+290694336
1657.84+295107808+299307776+302757152+304214080+302407904+296155456+285614496
1653.34+275691424+275855008+290303168+310982176+327152576+335137216+336988576
1648.84+335876640+333798848+331399712+328928288+327910208+331061184+338756256
1644.34+347179776+352404128+354309600+355084896+355817088+356252224+356406176
1639.84+356244000+354941376+352109248+348256256+342784704+333977376+323123712
1635.34+316226432+317567008+323307840+326445408+324590016+319789664+314175104
1630.84+308205856+301691296+294337152+285841248+276688448+268233968+261361936
1626.34+255604640+249535808+241589808+231386064+220969136+213462736+209546464
1621.84+206785344+202881968+197760480+192461248+187217680+180547376+170353456
1617.34+157314160+147118032+145740448+151370512+156630656+157662288+155978544
1612.84+153861264+151715168+149515696+147741888+146484416+145428368+144535824
1608.34+143726032+142640048+141359440+140448352+140069520+139928944+139867968
1603.84+139718528+139125808+138169136+137416720+137016480+136602496+136165200
1599.34+136009200+136023856+135913424+135790608+135764672+135519904+134945280
1594.84+134498736+134502144+134793424+135258752+135951504+136677040+137143168
1590.34+137412448+137747184+138309616+139248096+140581504+141960800+143093408
1585.84+144172608+145358704+146352816+147031648+147766960+148703584+149591744
1581.34+150492000+151666080+152938688+154063760+154809216+153666736+148386576
1576.84+139885456+134348784+137715040+147847008+157476576+162828640+165164784
1572.34+166629808+167129264+165272736+161310016+158197472+159076720+163742240
1567.84+169019056+172287024+173121216+172375408+171285488+171087296+172232128
1563.34+173912848+174509088+171955280+164384720+152169808+139329328+130805064
1558.84+128143608+130575192+138156096+149255232+158186624+160019744+155939440
1554.34+152098768+153155472+157923344+162192960+163391152+161805344+159408640
1549.84+158147232+158543856+159669904+160296736+159532928+156649968+151638784
1545.34+146323312+143236352+142097728+139377984+132998632+125406056+119821320
1540.84+115031976+108068792+101123760+100885616+109317576+120243976+127117656
1536.35+128547752+126288608+121742608+115825512+110764984+109367616+111783624
1531.85+115083544+116749160+116661584+115514328+113429584+110904136+109149192
1527.35+108270992+106839616+104378952+102616952+103044792+104383800+103681576
1522.85+99192296+91974984+85723104+84676216+90000480+98116672+103658680
1518.35+103983552+101043088+99238992+100862888+104354656+107356152+109063456
1513.85+109184144+107367120+104574560+102809904+102568064+102412088+101279392
1509.35+99029504+94926776+87914360+78849568+71282232+69406776+74849576+85093432
1504.20+95332144+102058120+104837928+105341864+105368400+105466816+104836808
1499.70+102849840+100713352+100202520+100460968+98920864+96174496+96525552
1495.20+101842496+108520272+112762784+114461120+114774368+113583184+110958848
1490.70+108876768+109531896+112763040+116372216+118658056+120010424+122165928
1486.21+126004120+130490272+134185128+136961808+139508640+141925920+143793712
1481.71+145233632+146970960+149495056+152750608+156401472+159736112+161699232
1477.21+162031840+162256144+164266528+167611504+169689216+169107552+167551216
1472.71+168039600+172167968+179271904+187284528+194018512+198504960+201366464
1468.21+203613552+205356464+205912848+204745376+202434624+201237168+203598752
1463.71+208980176+213952704+216490624+217786592+219135104+219687584+218488896
1459.21+215901520+211700320+204983776+197956240+196606944+203940448+215383712
1454.71+224540928+229305664+231028864+231295792+230887520+230441648+230511168
1450.21+230914976+230779360+229579520+227991136+227416080+228507376+230449472
1445.71+231897744+232284672+232006224+231599920+231107552+230353696+229468912
1441.21+228661664+227752096+226437808+224478064+220920016+214341824+205522496
1436.71+198982464+198871856+203341584+206813008+206587360+204042448+201139632
1432.21+198306624+195270528+191911232+188321616+185085328+182923664+181504000
1427.71+179715072+177313552+174883472+172301456+168914096+165071696+161865712
1423.21+159625760+157941632+156275824+153316016+147339008+139007088+132524232
1418.71+131531360+134585200+137548160+138588272+138603216+138604736+138586624
1414.21+138310112+137771376+137004688+136135824+135448592+135038576+134712144
1409.71+134420464+134394192+134711872+135046048+134923152+134009936+132356152
1405.21+130705024+130161280+130969864+132045536+132313608+131865888+131108168
1400.71+129594384+126816296+123551984+121221808+120176208+119592192+118572544
1396.21+116486072+113112168+109390456+107195800+107340944+108557328+109146576
1391.71+108675984+107663552+106496944+104969064+102439576+98612960+94565104
1387.21+92333696+92687544+94112952+94803360+94556680+94123848+93828952+93560584
1382.07+93308120+93016816+92426648+91455624+90407560+89670848+89447920+89647864
1376.93+89844248+89542696+88655480+87582720+86879640+86997384+88098096+89851672
1371.78+91636728+93085520+94153960+94761104+94850808+94759744+94917728+95229288
1366.64+95293352+95043384+94571672+93644304+92078048+90372328+89299760+89051648
1361.50+89341032+90012968+90977472+91882552+92377264+92436792+92141520+91497800
1356.35+90706656+90185288+90069832+90029656+89754888+89301480+88829032+88316808
1351.21+87712600+87163880+86911856+87007624+87242384+87380136+87356064+87235848
1346.07+87078584+86947520+86933328+87034160+87111304+87015640+86649496+85917512
1340.93+84870272+83902080+83534656+83907880+84675368+85368424+85710280+85695352
1335.78+85564256+85605816+85838688+85962280+85699184+85118336+84574888+84403808
1330.64+84668208+85158904+85571904+85674504+85384208+84839576+84344272+84117744
1325.50+84152016+84393080+84803696+85150520+85112552+84767568+84513144+84374592
1320.36+83944232+83132184+82373544+81961952+81789000+81778048+81981160+82204736
1315.21+82087648+81600296+81100640+80918288+81099912+81440544+81651256+81610152
1310.07+81444488+81292376+81148152+81063232+81208448+81579128+81883048+81889448
1304.93+81700128+81594640+81737304+82052816+82288832+82251776+82013656+81821248
1299.79+81832328+82028928+82300664+82501976+82551976+82559368+82739768+83187376
1294.64+83805104+84419464+84884688+85169752+85417992+85798840+86274392+86660840
1289.50+86920120+87200040+87600128+88074752+88545424+88959488+89283192+89571360
1284.36+89995536+90695152+91613472+92566496+93406432+94088800+94665336+95282200
1279.22+96080144+97012376+97868840+98588744+99390504+100440712+101578144
1274.72+102577896+103488048+104465480+105477152+106456560+107553056+108936784
1270.22+110486712+111924856+113202208+114589632+116371448+118510848+120645896
1265.72+122481288+124100456+125755664+127469944+129113488+130775544+132737944
1261.22+135128608+137845952+140742784+143680816+146521424+149237504+151968304
1256.72+154868352+157972080+161202656+164457104+167741728+171229600+175035056
1252.22+178949712+182615904+185975664+189327360+192926128+196766864+200754256
1247.72+204854112+209044864+213288576+217606784+222116608+226925440+232028800
1243.22+237306960+242615504+247860544+253001120+258057248+263169872+268592352
1238.72+274518208+280926016+287601120+294261632+300652448+306638848+312328608
1234.22+318042208+324074592+330477600+337106656+343765504+350237664+356323776
1229.72+362070528+367874432+374110880+380653408+387001248+392893664+398574464
1225.22+404378240+410278048+415992064+421435136+426834944+432360608+437830112
1220.72+442941216+447658144+452169504+456533632+460604096+464289248+467726176
1216.22+471178528+474799488+478400000+481484224+483716224+485317632+486760576
1211.72+488181632+489404480+490383904+491226816+491837888+491945056+491460160
1207.22+490551904+489348000+487789824+485801152+483485248+481033952+478424928
1202.72+475362304+471659552+467516960+463231552+458823008+454175936+449357376
1198.22+444486720+439461312+434094048+428416864+422628096+416823200+410937024
1193.72+404926144+398885632+392927104+386956032+380757472+374369568+368186720
1189.22+362509568+357167168+351761632+346141568+340487520+335049504+329922144
1184.72+325013888+320199776+315490464+310975008+306664608+302531520+298639808
1180.22+295023776+291543744+288080224+284776160+281842624+279215488+276586880
1175.72+273762528+270885600+268278144+266081136+264105056+262083488+259967248
1171.22+257868656+255897728+254182592+252848944+251831888+250907168+249932384
1166.72+248860016+247645168+246413536+245482784+244920416+244422480+243864800
1162.22+243482112+243278048+242891344+242285248+241900176+241909136+241965600
1157.72+241815584+241568176+241308016+241008928+240819248+240962896+241408064
1153.22+241967568+242579744+243283120+244124368+245260352+246890320+248938768
1148.72+251014976+252795264+254335568+255975968+258035184+260600736+263552736
1144.22+266725264+270014112+273356256+276700672+280018528+283308000+286617408
1139.72+290121024+294065824+298509792+303208864+307890112+312555808+317394240
1135.22+322514304+327912576+333606784+339619808+345870400+352246496+358777600
1130.72+365602304+372750624+380086688+387513472+395137760+403180032+411757152
1126.22+420752960+429876000+438882944+447793952+456872192+466376416+476378848
1121.72+486762080+497312640+507856224+518396736+529067968+539905984+550790080
1117.23+561620544+572391936+583103040+593795968+604636096+615663936+626541248
1112.73+636866624+646706368+656518912+666644864+677068736+687458880+697241600
1108.23+705955776+713827840+721721536+730219328+738980032+747246656+754795776
1103.73+762122176+769694272+777273984+784185984+790238272+796054080+802302592
1099.23+808889280+815166080+820674624+825446272+829851648+834384256+839297280
1094.73+844298816+848889664+853033088+857161984+861522176+865911744+870070016
1090.23+874003456+877888960+881790592+885511936+888798208+891736192+894693952
1085.73+897687488+900186304+901818368+902830208+903619648+904282048+904822144
1081.23+905275584+905454592+905059392+904093056+902639040+900426496+897217344
1076.73+893393664+889419392+885047424+879800000+873884864+867854272+861666944
1072.23+854861888+847368000+839410304+830873152+821444160+811183040+800341760
1067.73+788826048+776393856+763240832+749902592+736648576+723333248+709781888
1063.23+696062144+682395648+668877376+655292544+641313216+627010304+612953728
1058.73+599632192+586980928+574648576+562408384+550172544+537950976+525963264
1054.23+514407872+503057408+491479712+479707328+468264992+457592384+447769184
1049.73+438601760+429647104+420486112+411244864+402474080+394295072+386224128
1045.23+378008224+370003968+362492032+355236960+347954688+340730496+333810464
1040.73+327340256+321376416+315905824+310850080+306130752+301600800+296971680
1036.23+292046592+286984992+282099200+277502432+273110048+268785248+264394000
1031.73+260035136+256184592+253182704+250644288+247902320+244921888+242224912
1027.23+240038160+238099584+236164768+234251920+232505968+231102368+230057040
1022.73+229037808+227699360+226244240+225181312+224557600+223967280+223279936
1018.23+222823216+222858384+223253904+223687696+223929184+224037232+224381104
1013.73+225294320+226680160+228197616+229756064+231525328+233574288+235889744
1009.23+238660160+242102384+246042672+250087952+254251616+259030288+264757568
1004.73+271238528+278193760+285700896+293925792+302751232+311981664+321632576
1000.23+331700896+341971680+352419104+363468448+375474464+388211552+401179744
995.73+414184640+427322336+440626176+453924288+466972832+479602880+491686464
991.23+502882880+512545312+520102848+525431136+528627136+529588096+528106176
986.73+524159552+517837216+509257184+498764992+486956608+474339200+461166336
982.23+447578848+433670496+419526176+405422144+391786624+378754944+366027840
977.73+353401760+341164576+329729600+319051488+308691904+298412288+288483360
973.23+279316768+270986912+263310992+256229072+249774672+243790016+237985056
968.73+232258928+226749424+221657904+217161248+213275824+209759040+206400304
964.23+203335520+200719904+198285088+195701904+193179504+191184336+189737840
959.73+188436176+187005840+185474560+183964544+182614336+181589968+180984336
955.23+180688016+180424080+179944512+179256000+178604176+178194976+178059040
950.73+178151552+178377584+178550272+178561616+178507760+178442080+178252992
946.23+177995856+177966384+178165104+178184256+177885488+177668032+177792080
941.73+177953712+177832000+177609904+177676816+178104112+178629248+178982288
937.23+179103552+179113376+179163936+179348320+179658544+179972848+180185760
932.74+180438432+181045936+182041696+182991936+183413648+183262448+182948560
928.24+183015632+183707296+184714608+185510608+186039504+186718192+187640032
923.74+188319264+188437600+188335888+188510208+189022000+189569920+189883680
919.24+189968176+190116112+190589296+191256672+191824032+192344880+193062192
914.74+193826368+194240896+194396832+194872736+195929424+197181728+198138224
910.24+198684352+198965232+199150960+199403936+199823680+200314864+200681856
905.74+200930976+201322832+201985056+202647600+203000256+203184768+203613952
901.24+204306544+204829856+204984432+205138608+205663088+206396096+206939792
896.74+207197856+207354432+207527168+207677872+207709600+207496192+207028032
892.24+206576608+206481296+206702064+206902688+206987392+207165328+207424848
887.74+207386016+206823616+205978512+205207808+204595552+204082912+203740672
883.24+203686848+203814384+203813456+203530960+203175344+203011376+202975504
878.74+202833952+202583392+202326064+201884320+201031136+200053776+199509232
874.24+199406304+199198352+198595680+197856144+197240976+196698368+196106128
869.74+195423936+194646896+193931360+193594000+193683216+193838624+193836800
865.24+193844208+193817520+193238624+191958992+190781648+190629360+191426688
860.74+192243232+192316768+191638128+190743392+190229632+190400096+191135280
856.24+191907856+191963680+190907664+189268896+188002736+187418000+187204832
851.74+187432688+188389424+189565600+190191808+190538448+191173024+191557712
847.24+191191632+191152720+192390688+193606384+193005680+191003664+189378960
842.74+189180384+190647952+193551296+196723680+198956224+200572192+202399584
838.24+203464320+201769120+197418944+193310112+192148480+193561072+194867392
833.74+194421200+193149952+192417776+191819104+190314784+188075984+185946096
829.24+184439616+184273296+186045472+188322912+188138864+184613744+180276720
824.74+177809136+177285664+177337696+177302448+177229840+176930192+176010080
820.24+174546640+173221888+172699648+172857760+172780832+171608640+169340656
815.74+166801712+164898512+163768944+162694880+161190464+159906016+159715888
811.24+160255488+160535856+160568144+160957168+161336160+160864560+159862752
806.74+159255296+158917376+158221280+157568672+157700400+158240480+158399136
802.24+158348848+158505968+158397344+157570448
##END=
