##TITLE=octarelline 6 front
##JCAMP-DX=4.24
##DATA TYPE=INFRARED SPECTRUM
##DATE=31/1/2005
##TIME=16:47:15
##SAMPLING PROCEDURE=film
##ORIGIN=Vincent
##DATA PROCESSING=no operation
##XUNITS=1/CM
##YUNITS=ABSORBANCE
##RESOLUTION=2
##FIRSTX=4000.283
##LASTX=800.31372
##DELTAX=-0.64282227
##MAXY=0.15039049
##MINY=0.0032458
##XFACTOR=1
##YFACTOR=1.4006206e-010
##NPOINTS=4979
##FIRSTY=0.0039466959
##XYDATA=(X++(Y..Y))
4000.28+28178194+28834200+28903968+28427372+27503866+26415848+25748240+25852416
3995.14+26273072+26166272+25358586+24674252+24972898+26031144+26764250+26531604
3990.00+25778428+25304552+25300454+25335112+24972340+24219912+23483504+23174014
3984.86+23388714+23998076+24835030+25678172+26311282+26757910+27125924+27121824
3979.71+26358626+25179524+24457226+24471756+24746162+24996374+25447468+26164782
3974.57+26810852+27121636+27120330+26913390+26609524+26345766+26237470+26413054
3969.43+26993554+27859848+28640388+29078956+29101532+28559246+27440468+26281086
3964.28+25815518+26182674+26903880+27600456+28288236+28989034+29441462+29345004
3959.14+28798946+28181926+27576028+26746164+25889874+25642204+25997972+26126758
3954.00+25692148+25355794+25591702+26118742+26745048+27568944+28296816+28550292
3948.86+28654752+29027282+29287724+28960868+28324604+27760824+27259420+27097026
3943.71+27826280+29182876+30119198+30127970+29550054+28718734+27734158+26846648
3938.57+26364964+26372604+26799856+27423686+27843436+27903484+28003074+28651210
3933.43+29947888+31594800+33029066+33620520+33158144+31990646+30588404+29275040
3928.29+28266602+27538362+26947694+26870324+27911130+29578982+30362006+29656600
3923.14+28437260+27738632+27800172+28667810+30164178+31407908+31774792+31994570
3918.00+32963500+34081100+34011960+32544552+30651862+29151528+28226496+27808936
3912.86+27740868+27716256+27430584+26805074+25972438+25114686+24414572+24107596
3907.72+24326646+24995442+26310910+29099480+33758780+38963304+42703980+44638916
3902.57+45831816+46442044+45894656+45002120+45259784+45940988+44443736+39932736
3897.43+34554456+30598670+28414504+27322438+26930914+27162282+28175398+30613226
3892.29+34860592+39658852+42398568+41631036+38469632+34797232+31589758+29906456
3887.15+31622990+37227744+43701380+46723844+45163016+41451220+37963312+35450156
3882.00+34481004+35844628+38956196+41340712+40788792+37498232+33398948+30043246
3876.86+28034026+27849962+29916536+33581288+36851608+37861532+36542844+34810500
3871.72+35333692+39716320+46807524+52659940+53420428+48767928+41791568+36124344
3866.58+34018316+35783304+39514900+42041848+41717204+39992456+39057448+38895748
3861.43+37931692+35649628+32885424+30277646+28306884+28009600+29616294+31767136
3856.29+34666028+42305636+57914008+77609952+91954856+95578208+90835248+81291888
3851.15+68660200+55495460+44873112+37541632+32409522+28995568+27490812+27350778
3846.01+27682504+28439684+29985210+31920064+33297690+33989540+35120964+37519184
3840.86+40111716+41380420+42718408+47746752+56655652+63641424+63196244+57326000
3835.72+51960344+49032288+46162708+41986396+38328172+37201748+38126648+38835296
3830.58+37650692+34804892+31796636+30006668+29929038+31085306+32288132+32473582
3825.44+31735580+31137768+31473812+33151980+37144884+44308940+53043636+59115612
3820.29+59215080+53781836+45852640+39202688+37658172+43200020+53147228+60586612
3815.15+60133948+52915228+43960812+36792132+32000544+28915724+27043704+26229640
3810.01+26352660+27563162+30773376+36983840+45151576+51317084+51741964+46992344
3804.86+40944036+36690768+35680664+39305820+48099244+58889380+65269912+63311684
3799.72+55374668+46716152+40855836+38664996+39177228+40235844+39697600+37043132
3794.58+33454060+30285296+28155068+27251588+27479438+28172972+28378134+27700966
3789.44+26562924+25652826+25347780+25593378+26182486+27080248+28322176+29534942
3784.29+30049966+29735904+29169814+28829726+28892960+29898062+32430998+35741424
3779.15+37735440+37076984+34583980+32101382+30690878+30134502+29627116+28720038
3774.01+27738818+27274336+27580876+28861998+31670414+36096484+40669508+43017484
3768.87+42013000+38909032+36158940+35414632+36466548+37696528+37593632+35960548
3763.72+33718240+31851722+30810712+30843004+32473582+35928388+39876192+41873624
3758.58+41073072+39356920+38720576+38958628+38779528+37801104+36892568+38205608
3753.44+44556416+55976420+66965908+71499984+71361352+73069960+77425768+78376392
3748.30+72051344+61677252+53100604+51134640+58862260+74499888+88629544+90540840
3743.15+79851808+65131560+52984596+44859612+40137364+37853116+37066324+37898952
3738.01+41421996+47596232+54463216+59821348+62439952+61820352+58864520+56428288
3732.87+56794940+58596120+58146756+54024252+48269124+43116248+39224024+37115700
3727.73+37673328+40447424+43143608+43740180+42247368+40033644+38543548+38649836
3722.58+39939656+40592920+39232260+36784464+35263964+35159472+35269384+34675376
3717.44+33677700+33001422+32907840+33031870+33018422+33914796+38195880+46717464
3712.30+55906600+60346508+58936280+55631688+53580444+51957712+48846408+44437180
3707.16+40310364+37374772+35480068+34135472+33148992+32988908+34476148+37707192
3702.01+41380608+43541496+43160660+40922500+38389728+36608108+35714316+35596532
3696.87+36109384+36566220+36010284+34420644+32890654+32563606+34169108+38039088
3691.73+43231688+47461668+49943640+53368528+60294504+68176504+70840000+65788440
3686.59+56908080+49043176+43616852+39737100+36792696+34960776+34293380+34419896
3681.44+35126944+36631860+38976780+41367684+42759820+43589480+46526468+54388548
3676.30+66703036+78539416+83829392+80490968+71477672+61836192+56294848+57629876
3671.16+64652008+72240520+75550552+73999960+69631392+63754996+57185936+51453880
3666.02+47767020+45912664+45036064+44553980+44154084+43885644+44237888+45375120
3660.87+46729656+47820884+48640072+49187576+49939504+52528352+58042240+64598408
3655.73+68390744+67617896+63895364+60103044+58542252+60412092+65532468+72701568
3650.59+80728256+88524760+94416312+96918064+96185720+93295232+88613192+82385488
3645.45+76067792+71468024+69040016+68004392+67637536+67711784+68163840+68951008
3640.30+69978056+70975016+71781992+72653320+73840776+75066936+75982944+76937672
3635.16+78663768+81232696+83813064+85479152+86055432+86403376+88309104+93826288
3630.02+103731496+115795144+125018808+127156376+122402408+114592472+107295944
3625.52+101830568+98268416+96690952+96919960+98053224+99408264+101712744
3621.02+106331624+113092576+119678896+123627336+124464304+123282504+121083976
3616.52+118535408+116548064+115888376+116668176+118906400+122630816+126605144
3612.02+128480864+127818480+127442552+129972432+134435408+137826448+138806224
3607.52+138132544+136607680+134685360+133230496+132952304+133465312+133890776
3603.02+134028168+134476688+135842160+137987600+140051984+141364560+142227616
3598.52+143314256+144661552+146007664+147596080+149712224+151861664+153364528
3594.02+154328624+155261360+156120128+156451920+156236944+156349088+158146032
3589.52+162313408+167888480+172887472+176104112+177603696+177613280+176096480
3585.02+173536112+171022992+169425072+169003072+169577344+170664816+171878320
3580.52+173343792+175214384+176933248+177860080+178388208+179412208+180903024
3576.02+182085040+182817952+183728896+185066976+186398576+187498272+188693024
3571.52+190136032+191520704+192977024+195558032+200001328+205352752+209682992
3567.02+212063008+213034256+213273600+212881632+212025808+211295616+211164080
3562.52+211609040+212308816+212991088+213686208+214647456+215886224+216921488
3558.02+217361168+217446192+217738832+218593056+220124256+222223392+224391520
3553.52+226091376+227340272+228552672+229894112+231221808+232487728+233816720
3549.02+235359808+237250240+239478416+241766928+243859408+245742208+247312096
3544.52+248302048+248883584+249695152+250841984+251618384+251656256+251553648
3540.02+251909232+252524896+253124432+254137952+256105504+258754656+261220928
3535.52+262954768+264078928+265032368+266165152+267628752+269378080+271224608
3531.02+272927936+274340416+275569312+276961760+278723648+280489344+281596224
3526.52+281928160+282163776+282992608+284515040+286510656+288665792+290290656
3522.02+290621664+289945440+289683264+290821024+292868448+294759488+296033344
3517.52+296772928+297218784+297900096+299442272+301816000+304234208+306048576
3513.02+307315424+308395360+309465056+310611968+312077056+314099296+316486368
3508.52+318537696+319630176+319849600+319841600+320200864+321295520+323310240
3504.02+325975840+328492032+330267840+331443200+332361056+333075808+333725120
3499.52+334661280+335918432+337241280+338771776+340859008+343095616+344513792
3495.02+344923136+345217952+346169824+347580288+348744256+349352544+349813248
3490.52+350769440+352341856+354055936+355561664+356978688+358402816+359695584
3486.03+360976640+362610560+364491808+366070208+367200352+368277408+369545568
3481.53+370877600+372145568+373360288+374625888+376084448+377577504+378511200
3477.03+378654208+378756992+379671776+381283136+382974432+384516416+385811904
3472.53+386640512+387375424+389011168+391730496+394324768+395673568+396045056
3468.03+396504928+397684960+399400320+400971936+401877952+402352448+403070496
3463.53+404184928+405247136+406143936+407371168+409199008+411207328+412767040
3459.03+413542432+413733760+414152416+415572992+417705792+419478208+420591136
3454.53+421788544+423285376+424222304+424239264+424330784+425409728+427128832
3450.03+428793312+430390048+432007648+433248800+433987648+434975104+436858400
3445.53+439097856+440580256+441039616+441341760+442431296+444374656+446484224
3441.03+448099936+449089088+449711904+450349280+451295488+452550144+453810080
3436.53+454862656+455834240+456880416+457957184+459157376+460715200+462321152
3432.03+463104384+462872192+462690464+463658880+465688640+468001728+470153248
3427.53+472066272+473539104+474240448+474005280+473119552+472439136+472916960
3423.03+474730240+477210656+479771296+482326816+484730976+486557408+487689184
3418.53+488499328+489271744+489893376+490151360+489955648+489461600+489276512
3414.03+490234496+492602528+495723520+498607968+500542400+501177312+500645536
3409.53+499771872+499649408+500687936+502364096+503999488+505444448+506859648
3405.03+508256352+509535552+510757408+511949824+512879936+513374272+513723552
3400.53+514327104+515136768+515882336+516556000+517301216+518118016+519117920
3396.03+520610880+522443552+523804448+524229216+524384384+525272896+527016928
3391.53+528927328+530450816+531608544+532654304+533691200+534639872+535449504
3387.03+536244480+537204096+538312448+539391040+540370112+541317376+542194496
3382.53+542787136+542987520+543037504+543430592+544602176+546620544+549041600
3378.03+551097280+552301440+552953024+553845952+555392640+557206208+558646528
3373.53+559541184+560263360+561257664+562686400+564390912+566013376+567175296
3369.03+567708416+567834240+568056256+568741952+569761856+570725952+571522560
3364.53+572366528+573330880+574286720+575366528+576942464+578994112+580879936
3360.03+582001728+582356480+582392000+582648832+583518144+585035456+586793600
3355.53+588208192+588998848+589399104+589895360+590761472+591998912+593698176
3351.03+595992960+598416704+599936256+600166592+600009600+600484160+601480896
3346.53+602286592+602697536+602983616+603288640+603717312+604615104+606257920
3342.03+608530240+611057856+613330752+614769984+615211200+615317120+616031232
3337.53+617596160+619442624+620966784+622017600+622682048+623083712+623539264
3333.03+624445568+625819904+627260736+628553216+629870272+631188288+632111104
3328.53+632577600+633193856+634441152+636063488+637558848+638765184+639705344
3324.03+640358016+640829056+641393856+642260608+643468288+644893568+646238208
3319.53+647266432+648110464+649111232+650434496+652100608+654116544+656260288
3315.03+658094272+659494912+660832768+662513280+664590272+666736640+668277440
3310.53+668651392+668257280+668355648+669690496+671764736+673793472+675633536
3306.03+677357120+678637888+679035264+678603200+677996480+678109632+679476928
3301.54+681724288+683895744+685420864+686484288+687450560+688446144+689548160
3297.04+690870080+692270848+693304256+693652096+693503232+693458624+694024704
3292.54+695197312+696572672+697809088+698733504+699156800+699045184+698908096
3288.04+699387392+700393088+701175744+701324288+701110848+700872640+700697472
3283.54+700725312+701077760+701501824+701596160+701379392+701203136+701299712
3279.04+701762432+702521408+703077888+702841280+702003520+701293056+700680640
3274.54+699434240+697606848+696247616+695821568+695636544+695070336+694213376
3270.04+693233536+692228352+691627200+691682176+691749184+691016448+689655744
3265.54+688393536+687345984+686132096+684779072+683802880+683524096+683712064
3261.04+683855872+683638592+683051264+682013696+680200064+677697984+675530304
3256.54+674806976+675445056+676268160+676194048+674925568+672910528+671018368
3252.04+669893248+669308160+668595200+667732736+667375616+667669312+667723520
3247.54+666670016+664817472+663379968+663149504+663740992+664176064+663919552
3243.04+663084032+661930880+660720256+659874432+659673728+659758016+659463808
3238.54+658629696+657729536+657219648+657071808+657035072+657130496+657604608
3234.04+658248064+658219008+656990208+655140032+653530304+652213696+650942144
3229.54+650102592+650164416+650807424+651440320+651864448+651773056+650700480
3225.04+649147776+648528960+649356864+650623232+651330432+651352384+650663104
3220.54+649162752+647414208+646311296+645972096+645843264+645723328+645818304
3216.04+646021632+645881088+645174592+644201408+643479040+643227328+643072832
3211.54+642444352+641326528+640358912+640163520+640730048+641357760+641184768
3207.04+640047040+638725248+637945024+637468096+636785344+636126336+635903104
3202.54+635749056+635055360+633947904+632932096+632202048+631822464+631889600
3198.04+632097792+631780288+630652608+629035776+627496512+626692416+627080192
3193.54+628200768+628818688+628258432+627090560+626202048+625856960+625816000
3189.04+625700864+625052160+623564288+621462720+619439936+618188480+617976960
3184.54+618433280+618747392+618352064+617370368+616251456+615207808+614265152
3180.04+613510976+612942464+612309888+611402112+610400384+609685504+609336960
3175.54+608965952+608154304+606959104+605806464+604905536+604028736+602917504
3171.04+601669888+600588928+599863552+599516672+599424320+599293824+598844032
3166.54+598153984+597596160+597254016+596645056+595376384+593838784+592846016
3162.04+592615744+592531584+591921088+590690816+589216960+588000000+587329856
3157.54+586930496+586097856+584528384+582846912+581977856+582125696+582611840
3153.04+582542656+581573824+580156480+579050240+578453504+577819072+576642880
3148.54+575181376+574170624+574023168+574401920+574474496+573692864+572428288
3144.04+571514560+571128768+570640448+569649088+568414528+567134080+565664832
3139.54+564245952+563607872+563945088+564402944+563968128+562491648+560694016
3135.04+559495168+559254720+559390016+558897024+557491968+555923264+554935040
3130.54+554473280+554189376+554009920+553757760+552928128+551499520+550327744
3126.04+550016640+549959488+549175872+547660096+546214912+545375040+545028416
3121.54+544797760+544322752+543494208+542582784+541805504+540847552+539419136
3117.05+538145344+537981120+538793728+539389952+539057792+538256576+537614336
3112.55+537057280+536275488+535432736+534882592+534489472+533723200+532418400
3108.05+530956640+529556256+527902528+525853792+524052192+523265120+523447136
3103.55+523937696+524225280+524077536+523405280+522449888+521654272+521011456
3099.05+520077152+518845472+517997056+518060576+518801568+519454912+519175872
3094.55+517595648+515408288+513885408+513365376+512845888+511506432+509837344
3090.05+508848672+508938336+509848192+510918432+511243808+510352320+508821440
3085.55+507605376+506995232+506709056+506542976+506341920+505850176+505046816
3081.05+504149056+503114784+501742784+500246368+499098784+498452832+498261568
3076.55+498588928+499174368+499202848+498192352+496663328+495449824+494749376
3072.05+494217408+493573280+492814176+492145888+491767488+491541600+491008288
3067.55+490045920+489248160+489171616+489400352+488911456+487368832+485514368
3063.05+484198976+483569504+483356256+483376832+483395552+483053952+482305184
3058.55+481474656+480710400+479876416+479089376+478627008+478226368+477274656
3054.05+475790144+474437344+473544032+472813984+472012672+471332512+471004416
3049.55+470940960+470793344+470226752+469159296+467686656+465881312+463985344
3045.05+462635488+462265184+462387680+462161568+461511456+460896096+460239200
3040.55+458970656+457025600+455010944+453460480+452412640+451566144+450592064
3036.05+449468256+448592672+448234880+447993792+447222592+445914144+444730848
3031.55+444189696+444062784+443681696+442670048+441304672+440108832+439288704
3027.05+438647968+437879328+436796768+435476960+434292480+433566336+433154208
3022.55+432604896+431678368+430468160+429152000+427870816+426718240+425726432
3018.05+424998880+424693888+424653568+424360064+423569056+422581440+421590816
3013.55+420324896+418624960+416812672+415274848+414152608+413511776+413307136
3009.05+413215744+412806976+411793664+410148608+408357248+407369440+407647232
3004.55+408484416+408821312+408382176+407440288+406037920+404209760+402506048
3000.05+401569312+401397024+401432832+401242016+400856288+400568384+400476224
2995.55+400363712+400051232+399613920+399078464+398304192+397421472+396943328
2991.05+397109696+397528000+397676544+397453184+397146688+397102304+397329216
2986.55+397393568+396983040+396516096+396635008+397187424+397360160+396754496
2982.05+395798112+395166592+395209760+395762624+396315552+396567968+396712960
2977.55+396989952+397313888+397648800+398173664+398808192+399256544+399674912
2973.05+400460064+401360416+401762016+401782816+402076192+402765984+403443264
2968.55+403941120+404360352+404747168+405261728+406143936+407172832+407858464
2964.05+408370752+409433792+411050144+412142400+411843680+410595200+409614944
2959.55+409548064+409949472+410014208+409494080+408699264+407844992+406858368
2955.05+405727616+404602720+403575456+402675040+401914560+401133280+400124832
2950.55+399080160+398501472+398500896+398614656+398375424+397682816+396633120
2946.05+395488384+394782368+394958048+395798112+396540928+396621760+396218688
2941.55+396046912+396594016+397499392+397942944+397737248+397619808+398217600
2937.05+399150976+399576256+399248512+398611200+398107456+397792928+397455936
2932.56+396942304+396405664+396241632+396515904+396603264+395813216+394322304
2928.06+393026944+392460160+392373344+392322720+392071936+391405248+390175520
2923.56+388676576+387444576+386578528+385665664+384409536+382915072+381319744
2919.06+379605792+377854528+376322752+375197600+374471808+374016608+373572480
2914.56+372718848+371210240+369415872+368131936+367730112+367660800+367104032
2910.06+365969536+364779968+363697504+362302912+360467168+358752832+357577024
2905.56+356507392+354902624+352962080+351586400+351241536+351411712+351317312
2901.06+350766144+349974656+348941152+347621216+346556896+346536224+347419648
2896.56+347970208+347205920+345541664+344207904+343740992+343465792+342564064
2892.06+341238560+340339360+340044864+339755712+339268864+339024160+339036480
2887.56+338719424+338063104+337804640+338136064+338382816+338180384+337875552
2883.06+337710496+337632576+337833504+338507904+339259200+339570336+339586816
2878.56+339777568+340205728+340597024+340810688+340890144+340921920+340947264
2874.06+340876096+340652480+340535520+340813824+341161184+340870752+339790784
2869.56+338565856+337820320+337482560+336946016+335776768+334285184+333242720
2865.06+332966144+332977856+332760000+332314528+331724768+330811456+329644160
2860.56+328730208+328310016+327981920+327328448+326418112+325510848+324699104
2856.06+324018656+323645056+323747040+324178112+324390656+323832160+322536416
2851.56+321210240+320525856+320441408+320294880+319516864+318211264+317022240
2847.06+316516672+316730944+317298848+317724480+317498464+316337568+314549664
2842.56+312896320+311934816+311615168+311456800+310911424+309751168+308362912
2838.06+307387872+306955040+306656128+306242592+305730752+304931328+303693376
2833.56+302570240+302349600+302908512+303299392+302935424+302028704+300998432
2829.06+300077408+299430048+299116160+298930944+298561984+297880320+296962464
2824.56+295978016+295142240+294621088+294348576+294018976+293367168+292453888
2820.06+291604832+291092832+290899776+290771296+290443904+289872576+289290848
2815.56+288940864+288709440+288212864+287286528+286168320+285100352+284109664
2811.06+283281984+282826400+282658944+282264800+281317952+280233440+279779296
2806.56+280198848+280954304+281375424+281308448+280974720+280466912+279746944
2802.06+278903616+278106400+277403328+276816096+276448704+276289920+276123232
2797.56+275742848+275052864+273992544+272703904+271612128+270962176+270484032
2793.06+269884896+269359104+269228736+269423616+269612928+269522624+268996096
2788.56+268122624+267304368+266844512+266572992+266219328+265854624+265619856
2784.06+265349856+264824848+264116960+263444656+262921360+262547216+262186976
2779.56+261559088+260481888+259149040+258019024+257476576+257537792+257754512
2775.06+257533008+256773392+256016160+255768272+255903168+255923408+255555312
2770.56+254808032+253739952+252466976+251266048+250390752+249786704+249170944
2766.06+248423584+247842560+247849552+248435808+249024144+248979712+248172688
2761.56+247007264+246022288+245496352+245326704+245196704+244878064+244348112
2757.06+243697856+243047360+242559488+242292880+242034688+241510832+240760880
2752.56+240056880+239485440+238949152+238515616+238367520+238381104+238122480
2748.07+237383920+236456672+235773984+235382176+234911824+234061440+233065056
2743.57+232467808+232427168+232560816+232588720+232666224+232767424+232358448
2739.07+231161664+229758352+228880960+228455184+227880448+226944528+226023408
2734.57+225530400+225515936+225678304+225628416+225227904+224688176+224274896
2730.07+223976496+223577008+222955328+222185088+221450736+220939056+220701296
2725.57+220590160+220383984+219975232+219429872+218890544+218462976+218144896
2721.07+217859952+217568512+217253504+216818016+216147776+215308080+214555568
2716.57+214073920+213781264+213477520+213112640+212809184+212627280+212416288
2712.07+212016896+211489360+211027568+210717008+210471888+210167904+209798096
2707.57+209517072+209481296+209563744+209401408+208836336+208083232+207343120
2703.07+206593744+205894448+205449920+205157648+204620624+203793312+203169296
2698.57+203116400+203408256+203536560+203211312+202533936+201879568+201527696
2694.07+201350208+201072736+200731984+200484560+200035856+198903904+197304352
2689.57+196158880+196030304+196502640+196793488+196614672+196202944+195804496
2685.07+195460560+195174592+195000784+194911440+194707344+194161872+193257504
2680.57+192333120+191931216+192281024+192877312+192877312+192016352+190857472
2676.07+190058208+189730064+189581328+189352640+189001408+188666896+188501536
2671.57+188404896+188059664+187333552+186497680+185944048+185825328+186009984
2667.07+186220560+186176992+185708768+184759968+183464960+182290656+181888448
2662.57+182450592+183399088+183982256+183958912+183497904+182765616+181918448
2658.07+181185536+180708256+180452240+180337056+180230288+179921984+179335840
2653.57+178665616+178136272+177772192+177543424+177474912+177530496+177569840
2649.07+177500944+177313280+177015424+176679488+176416144+176161040+175657744
2644.57+174842432+174089904+173856880+174114512+174299856+173911824+173125488
2640.07+172654544+172958416+173710864+174191552+174039264+173448752+172749712
2635.57+172058432+171363408+170749776+170415648+170509584+170964000+171475904
2631.07+171691760+171505600+171194064+171144080+171412240+171643328+171449744
2626.57+170828272+170175312+169895536+170002128+170159888+170113408+169924240
2622.07+169694656+169329632+168809680+168406912+168352656+168485536+168566144
2617.57+168607696+168651600+168559504+168308352+168130400+168135664+168146016
2613.07+168094320+168177040+168460960+168655520+168471488+168029552+167786240
2608.57+168092160+168756800+169149664+168877200+168250224+167836960+167735520
2604.07+167640704+167449920+167363888+167466896+167615936+167715824+167806336
2599.57+167888096+167912656+167885152+167831504+167707824+167473520+167177232
2595.07+166882688+166608688+166396896+166335072+166441744+166625072+166771920
2590.57+166801552+166677328+166445456+166226272+166088224+166046880+166170704
2586.07+166469232+166711280+166690000+166615888+166872752+167424352+167836960
2581.57+167825072+167474096+167046352+166846224+167052192+167488144+167816304
2577.07+168022112+168326304+168669952+168788592+168676576+168504080+168231680
2572.57+167818832+167539456+167635056+167909744+168064064+168103088+168164944
2568.07+168247280+168300368+168364368+168516576+168773568+169009136+169051680
2563.58+169016560+169324368+170091536+170832976+171119264+171153056+171290944
2559.08+171472976+171472400+171262816+170895840+170454128+170239152+170501392
2554.58+171028640+171435680+171667136+171865808+172023264+172116448+172270208
2550.08+172550192+172868720+173229856+173745856+174393120+174998480+175413280
2545.58+175573056+175569728+175652464+175938816+176237920+176412224+176657760
2541.08+177074912+177345744+177271392+177209360+177559856+178218880+178877248
2536.58+179461168+179959792+180230496+180249888+180239488+180398368+180730800
2532.08+181171648+181628000+181947456+182076016+182189504+182478224+182906560
2527.58+183337104+183723600+184069152+184349216+184583216+184866496+185230416
2523.08+185599072+185945408+186329296+186747568+187068496+187187680+187168624
2518.58+187170976+187275424+187423664+187550880+187728976+188115040+188741728
2514.08+189468768+190142304+190699248+191114976+191431472+191847056+192552416
2509.58+193438464+194165040+194525888+194597744+194559952+194561936+194704976
2505.08+194983280+195264720+195462368+195699952+196199024+196992400+197795440
2500.58+198212880+198140560+197905760+197946736+198401248+199098208+199783712
2496.08+200237312+200345360+200240880+200226064+200479040+200966656+201606400
2491.58+202296608+202852368+203150336+203264592+203335264+203476352+203890624
2487.08+204703136+205614816+206088608+206025216+205869968+205955312+206128112
2482.58+206124768+206026608+206170784+206716000+207405168+207824720+207920560
2478.08+208104400+208698384+209484848+209991488+210036592+209793360+209498688
2473.58+209325280+209417824+209801824+210288544+210655248+210962096+211491104
2469.08+212245472+212782064+212798496+212634000+212783472+213154848+213325264
2464.58+213290432+213409232+213744048+214014512+214101248+214156512+214327216
2460.08+214642912+215064816+215474880+215744752+215850336+215811712+215667280
2455.58+215608624+215829360+216166416+216293840+216314832+216633904+217181952
2451.08+217417664+217203968+217082656+217480512+218133200+218546256+218666048
2446.58+218819552+219131152+219352320+219332288+219305696+219421136+219316416
2442.08+218655520+217854592+217672992+218194064+218781472+218978000+218934784
2437.58+218998656+219304304+219731408+219995072+219869312+219476880+219212480
2433.08+219285280+219534192+219741344+219888144+220037344+220165520+220243296
2428.58+220335776+220514560+220698528+220716176+220548896+220407984+220488560
2424.08+220726304+220935072+221044848+221109728+221161344+221197264+221243120
2419.58+221304640+221307808+221181584+221009904+221029952+221385440+221846000
2415.08+221943840+221514656+220969216+220803328+221001984+221182992+221169072
2410.58+221111920+221123040+221155392+221213936+221385840+221599616+221616864
2406.08+221367984+221134144+221249872+221688944+222096720+222170784+221903536
2401.58+221491024+221161904+221059136+221137904+221161552+220954912+220625696
2397.08+220392512+220241920+219998864+219677248+219495520+219534800+219633216
2392.58+219667328+219701072+219801648+219892336+219895872+219843696+219762352
2388.08+219600080+219381072+219285664+219414000+219590368+219589360+219513168
2383.58+219707408+220298864+221062688+221816576+222696960+223889264+225342016
2379.09+226948896+228838960+231223184+234021200+236902112+239688080+242571296
2374.59+245863440+249640432+253670160+257677376+261635344+265759616+270225056
2370.09+274909056+279454688+283584352+287306816+290820608+294298976+297824992
2365.59+301424288+304980672+308114048+310385376+311717984+312441696+312855040
2361.09+312936224+312561248+311734112+310401312+308275936+305132192+301161344
2356.59+296785536+292200032+287310048+282061568+276590368+271000704+265192640
2352.09+258961392+252182064+244971072+237936048+232275968+229302416+229634944
2347.59+232819248+237708160+243106512+248204944+252753088+256947648+260993344
2343.09+264769664+267997904+270640672+272882112+274746496+275985632+276433568
2338.59+276362432+276345696+276755040+277411840+277787392+277509056+276642080
2334.09+275506464+274302016+272975360+271439040+269829888+268418464+267249584
2329.59+266044720+264501344+262490480+259983616+257071920+254151568+251730624
2325.09+249899472+248254976+246416880+244317712+241989920+239470624+236973328
2320.59+234759712+232772800+230699344+228415216+226090976+223896624+221870192
2316.09+220017312+218309488+216660688+215070368+213646016+212348800+210979904
2311.59+209577968+208482656+207757328+206916944+205541552+203860032+202414192
2307.09+201416080+200694704+200025168+199284048+198458560+197650656+196981744
2302.59+196431936+195888144+195293072+194647344+193990704+193420368+192999056
2298.09+192627744+192206304+191821520+191565728+191279504+190770000+190136208
2293.59+189622192+189281136+188972736+188566736+188058288+187600960+187398320
2289.09+187417984+187307040+186791536+186031968+185372064+184907088+184494176
2284.59+184082672+183794592+183712832+183694384+183492992+183046528+182578192
2280.09+182310640+182188720+181984880+181592544+181105808+180684960+180410704
2275.59+180240480+180108448+180052832+180140592+180256352+180172896+179841904
2271.09+179400864+178957744+178601200+178491952+178640944+178724528+178413072
2266.59+177798224+177297200+177174528+177267472+177131472+176498880+175619408
2262.09+174998672+174763824+174568096+174180416+173773600+173522432+173339504
2257.59+173154608+173053568+172980288+172674864+172049648+171374736+170963024
2253.09+170870464+170947216+171026304+170992896+170807568+170498272+170085104
2248.59+169593744+169160400+169022032+169240416+169529504+169496720+169013040
2244.09+168311472+167797744+167771200+168140944+168436176+168297824+167864864
2239.59+167418912+166917408+166287312+165812720+165717184+165685392+165367040
2235.09+164976592+164865312+164902336+164804896+164636480+164545088+164398336
2230.59+164025744+163495568+162988304+162659904+162594640+162673328+162669056
2226.09+162596208+162654240+162732368+162459280+161821120+161239536+160959600
2221.59+160814800+160627520+160456448+160425872+160540528+160672880+160649312
2217.09+160431328+160205952+160159264+160203232+160032944+159452688+158605632
2212.59+157916144+157722464+157914032+158083008+158030128+157886784+157747168
2208.09+157541040+157308864+157230512+157303632+157262608+156907584+156344416
2203.59+155831312+155490064+155227760+154923280+154610288+154384368+154239872
2199.09+154142928+154139632+154173616+154026976+153682816+153442208+153434816
2194.60+153399280+153195184+153040240+152992848+152767840+152343456+152133424
2190.10+152267360+152295888+151912512+151397040+151064240+150786576+150369056
2185.60+149995424+149961472+150204144+150387104+150309680+150025296+149616800
2181.10+149112752+148620640+148328448+148241776+148115392+147806384+147505952
2176.60+147438304+147497616+147431136+147247392+147183248+147343904+147575328
2172.10+147624176+147300704+146605952+145826544+145369984+145339568+145445120
2167.60+145414544+145315376+145342864+145489872+145593696+145549152+145376368
2163.10+145173200+145014960+144842048+144496368+143954640+143428848+143129216
2158.60+143068832+143125536+143126512+142876848+142352992+141832336+141586448
2154.10+141508496+141354688+141203440+141292224+141515072+141512160+141250048
2149.60+141130720+141419696+141864656+141995056+141668672+141178480+140856640
2145.10+140697280+140482224+140159104+139908096+139822080+139752880+139555104
2140.60+139295264+139117248+139087072+139209632+139419184+139518544+139329296
2136.10+138952752+138683888+138636912+138671120+138686592+138686208+138573152
2131.60+138231072+137842512+137759600+137963072+137997264+137581664+136997472
2127.10+136716416+136846800+137081104+137110096+136979312+136931216+136963472
2122.60+136786736+136321648+135936000+135963232+136225488+136292096+136001472
2118.10+135546560+135214672+135158480+135299216+135435152+135534400+135739440
2113.60+136004944+136008032+135582848+134959648+134461456+134208232+134141856
2109.10+134065432+133755888+133286064+133036400+133180720+133470528+133673888
2104.60+133810696+133811080+133464344+132862776+132419712+132303032+132295688
2100.10+132251512+132301088+132539312+132820352+132914696+132731424+132399080
2095.60+132150456+132056544+131973608+131846328+131837072+131992904+132049584
2091.10+131825704+131558608+131542040+131646944+131524304+131173944+130985008
2086.60+131159688+131419016+131381408+131057888+130765040+130672120+130615456
2082.10+130336512+129789152+129255752+129157088+129609536+130186168+130300672
2077.60+129845416+129275992+129086008+129326864+129593552+129413952+128731888
2073.10+128035912+127840224+128098512+128367984+128447936+128516320+128718208
2068.60+128978888+129230512+129508192+129788376+129924056+129778952+129333792
2064.10+128676976+127953088+127315816+126882600+126696600+126731440+126966928
2059.60+127428480+128068672+128640768+128863480+128689320+128294016+127821152
2055.10+127367432+127117304+127230528+127536520+127622408+127289632+126769184
2050.60+126391280+126189720+126009752+125889264+126072504+126597072+127138864
2046.10+127390744+127345688+127103624+126675632+126155080+125812648+125823232
2041.60+126032648+126122352+125955280+125735864+125797832+126142760+126331032
2037.10+126054408+125605376+125408304+125317272+124891624+124171696+123667144
2032.60+123688896+124106104+124617440+124960504+125008624+124904704+124957248
2028.10+125258384+125561304+125594592+125320928+124907592+124613400+124667472
2023.60+125093480+125620952+125852680+125612480+125153512+124964352+125234728
2019.10+125669080+125931208+126095792+126390504+126687160+126632304+126148336
2014.60+125457944+124721144+124015304+123590408+123728504+124295984+124774432
2010.11+124830416+124622264+124452360+124361376+124230168+124139176+124345784
2005.61+124896624+125447560+125590936+125299960+124954936+124932608+125250872
2001.11+125625760+125765304+125567832+125164280+124827344+124730016+124777144
1996.61+124821016+124908560+125098096+125215088+125196616+125478536+126495416
1992.11+127822128+128380312+127617592+126122352+124966296+124709800+125106752
1987.61+125616336+126029192+126508888+127092280+127479896+127415768+126998120
1983.11+126521976+126268080+126401664+126765904+126875272+126470792+125921968
1978.61+125729704+125893304+126127752+126407048+126897040+127557504+128152840
1974.11+128480664+128438880+128048040+127522848+127136176+126961728+126866424
1969.61+126786712+126887024+127404600+128323296+129246896+129713800+129653288
1965.11+129361160+129062696+128735744+128364528+128102752+128143784+128556184
1960.61+129204296+129740968+129862384+129695704+129692616+129979176+130163232
1956.11+129963760+129645960+129554624+129590464+129490264+129311832+129285424
1951.61+129421856+129552312+129627080+129733072+129956824+130290072+130574576
1947.11+130605800+130431944+130341912+130510968+130998880+132102432+133990944
1942.61+135838112+136223344+134800400+132773472+131427888+131032432+131274400
1938.11+131836304+132310160+132319032+131975152+131768024+132006208+132657168
1933.61+133451416+133896576+133611760+132850648+132265024+132073696+131986920
1929.11+131854040+131823192+131927904+132052856+132206960+132473136+132903296
1924.61+133692216+135041696+136571952+137355824+136899536+135724384+134772784
1920.11+134716048+135965184+138570624+141557424+143012144+141765792+138753088
1915.61+136010560+134717984+134682848+135213328+135812816+136242656+136598416
1911.11+137237408+138245392+139169808+139557408+139429808+139027936+138485984
1906.61+137920352+137483712+137229088+137161856+137333024+137666080+137898512
1902.11+137926736+137941424+138116112+138401728+138669776+138796768+138709008
1897.61+138629968+139067760+140217104+141531312+142182720+141895216+141113488
1893.11+140412208+139981584+139910832+140686656+142757264+145363776+146625152
1888.61+145518928+143162704+141400160+140847728+141014864+141516416+142206336
1884.11+142720304+142807952+142810464+143129616+143585456+143804592+143835376
1879.61+143930240+144068464+144104288+144127328+144350176+144843792+145530560
1875.11+146234544+146683088+146729776+146563728+146500752+146797040+147981616
1870.61+150862048+155377952+159693376+161442608+160099504+157250336+154572032
1866.11+152522816+150905328+149685072+149007472+148968096+149520432+150361680
1861.61+150950544+150978080+150722352+150685104+150981968+151357264+151652048
1857.11+151908464+152089728+152095168+152101584+152474688+153198304+153792736
1852.61+153927328+153767680+153641072+153715248+154026768+154585824+155449840
1848.11+156621808+157612784+157806672+158249696+161909152+169964064+178189520
1843.61+180040672+174330752+166230384+160544992+157930736+156983776+156789760
1839.11+157086256+157783136+158785392+159642208+159778224+159371552+159112208
1834.61+159134976+159193344+159412032+159944976+160894384+163228080+167947968
1830.11+173458128+175976768+173879552+169489888+165990928+165034688+166949600
1825.62+170521696+172842912+171858768+168769088+166124288+164785408+164205008
1821.12+164074640+164283168+164458560+164545472+164901760+165422608+165512672
1816.62+165035664+164506112+164406320+164808192+165455168+166010224+166494016
1812.12+167391216+168974592+170726944+171760320+171608544+170513088+169194768
1807.62+168353616+168183280+168437136+168845600+169171920+169234192+169406144
1803.12+170459600+172319264+173851584+174591776+175436528+176744624+177159856
1798.62+175503616+172745024+170996624+171160656+172152016+172400336+172284288
1794.12+174561056+181163408+189625744+194457056+193008496+187749392+182096992
1789.62+177295648+173661008+171794128+171671456+172521280+174140528+176737392
1785.12+179289824+179857552+177986320+175425184+174264288+175333664+177919008
1780.62+180161920+180370944+178682048+176748944+175757104+175830048+176914656
1776.12+178577312+179537744+179803312+182631328+191314288+203726624+212411920
1771.62+211802960+203555680+193683408+187582880+187488256+191261616+193622000
1767.12+191156832+185785488+181506704+179653280+179124736+179664448+182704272
1762.62+188765312+195256064+197942576+195227936+189909648+185921088+184980480
1758.12+186894176+190795568+194558592+195140736+191938288+187896848+185726240
1753.62+185877136+189100208+196952208+207493312+214177696+213062176+207971552
1749.12+204635824+203999984+203580752+201940320+199623664+197544080+196397312
1744.62+196811424+198840224+201275680+202210608+201360672+201614672+206201600
1740.12+213585648+217541952+214550432+208174320+203583312+202536320+205919728
1735.62+216456128+234746144+253766224+261683776+253436320+236065376+220581040
1731.12+212878288+211900528+212929936+212440048+210454112+208705072+208065648
1726.62+208275920+208896640+209773152+211010752+212751568+214739776+216305120
1722.12+217081856+217562400+218833440+222343520+230020896+243216048+259738016
1717.62+272282560+273761376+266023600+257862800+254218784+252403200+248392144
1713.12+242938608+239330480+238695472+240118992+242793088+245906080+248433792
1708.62+250755984+254750816+261310160+269158560+276404672+282055680+285956096
1704.12+288182848+288944960+290113248+297149856+316513792+347404768+375388672
1699.62+382219232+367644384+349149024+342829920+354539776+379678048+403402272
1695.12+409630752+398443104+384483776+378773216+381609632+388525536+397110336
1690.62+407071424+417413760+426809568+434967424+441676320+446856064+453565952
1686.12+468183328+494178144+524721056+544330240+544270144+531606176+518590144
1681.62+512049408+512679072+517818432+523967072+529102880+533591328+539040064
1677.12+547452608+560935488+579021056+595346560+601678656+598275904+594326912
1672.62+596990976+605543808+615875200+626812992+639371136+651755968+659163648
1668.12+659438016+656205696+654925632+657932032+664025152+671797504+682014848
1663.62+695714240+710676928+721929472+726992768+728682048+731246976+736127424
1659.12+742432064+749230912+755810176+761362688+766262464+772899904+784545216
1654.62+804068160+832144768+862170496+877161920+863554304+829726592+795836352
1650.12+774060480+765446912+765583168+769861824+775861312+782639616+787946432
1645.63+787021952+777008640+761901824+748909824+741200640+736878656+733476800
1641.13+730426560+727273088+723183040+718728768+715141248+712444224+711311680
1636.63+714570368+721890240+724203520+711004608+684113920+654852608+631122432
1632.13+613788480+600448256+588530688+576550208+564919104+554961344+546322240
1627.63+536610368+524126528+509849888+496786944+488186240+485136800+484385632
1623.13+479827680+468282624+452666752+438342304+428121024+421089824+415448128
1618.63+412509632+416442304+427771360+437529152+433455200+415342208+394957824
1614.13+381137056+373824768+369154816+364890784+360877792+357624128+355724160
1609.63+354935936+353755808+351186944+348063904+345393312+342815520+339892032
1605.13+337303328+335677920+334658432+333844512+333307744+332800544+331775808
1600.63+330314720+328944544+327757792+326668416+326016288+326068832+326492416
1596.13+326929824+327483968+328230080+328828032+328884512+328406560+327938752
1591.63+328251232+329468608+330736192+331338944+331678496+332459360+333658624
1587.13+335011168+336611232+338396416+339960704+341173600+342210720+343224640
1582.63+344657920+346999840+349760512+352021152+353967264+356160736+358611328
1578.13+363364160+375545344+396706400+417103808+421834336+409377440+392921024
1573.63+383380768+381734816+384065376+388508352+396575360+408781472+420682400
1569.13+425488128+421756832+415144000+411629888+412797888+417288800+423094272
1564.63+427925632+430128896+430236736+430903136+436123808+450309696+475019552
1560.13+504883904+529790560+543563072+545562176+535219264+515060448+495796128
1555.63+488963200+496242080+508058400+513104096+509422752+503509600+501631808
1551.13+505291296+511893952+517331104+518964992+517233728+514606592+513609440
1546.63+516004800+522092544+529126368+532340736+530880736+530396672+535854720
1542.13+544535808+550524928+554499840+561310208+568166144+563892544+543854272
1537.63+517114976+494794208+481158944+475569312+476443520+481645408+486688256
1533.13+485857856+477476896+465787424+455697632+448467712+443469984+440862976
1528.63+440331040+439836864+438318400+437417888+438030016+437423200+432527520
1524.13+424948000+420331840+423362656+433690720+444893152+447710048+437455712
1519.63+418916000+402317280+395016000+396305248+398638976+395432544+387119552
1515.13+377664768+369314240+363208288+360481056+359827392+357409824+351854080
1510.63+346259296+343719744+344567264+348814560+357687584+370739904+382742752
1506.13+385282688+373259360+350093024+325070144+306024096+295364032+290908512
1501.63+288802304+286873536+286329024+289039264+293061440+294108768+292713088
1497.13+294246944+299239520+299703424+289954976+275425472+264564576+259397808
1492.63+257674192+258755856+263393536+269726240+273239776+271382944+266369376
1488.13+262313280+260518672+258594336+254338736+249022160+245357744+243809824
1483.63+242828496+241670016+240957808+240857568+240588688+239866576+239279600
1479.13+239126848+239464048+241414304+246270416+252504240+256193408+256496352
1474.63+258007984+265138704+276317760+285253728+286758176+280224960+269121472
1470.13+258816928+253226336+252165232+252593440+252539936+252978064+256195008
1465.63+262930432+270145440+272236160+267110192+259429168+254850800+254128512
1461.14+255200304+257892688+263293568+271327680+282461120+298416320+316442784
1456.64+325908288+318584224+300207520+283126048+273543744+270099456+269231904
1452.14+268823168+268070224+266758064+265755984+266808656+270491456+274611392
1447.64+275777344+272940064+268406944+265023296+263502192+262742912+261819744
1443.14+260945856+260622416+260645312+260495360+260095568+259513568+259044784
1438.64+260839520+268503104+281917216+292943808+291533600+278212736+263365376
1434.14+254684640+251814432+251080416+250941376+252026912+254509264+257164112
1429.64+258105808+256319664+252981472+250457216+249669296+249752256+250365456
1425.14+252322208+255416656+257707328+257716592+255860624+254017360+255432720
1420.64+263476448+277201856+288595616+289204000+280372256+270655424+265046432
1416.14+262279888+260152240+258912384+259324448+260723136+262056224+263100224
1411.64+264075312+265010032+265735040+266151664+266496848+267264880+268643552
1407.14+270471904+272924480+276291552+279649664+281038080+279891168+277983680
1402.64+277035936+276893024+277132736+278821152+282841728+287339840+288852000
1398.14+286145600+281504128+278355648+278861152+282814432+287214112+287793056
1393.64+282897024+275304704+269038592+265670384+264236912+263259152+262299824
1389.14+262362736+264698432+268381760+269873248+266697440+260690368+255603504
1384.64+252933360+251647024+250488688+248978912+247043488+244967088+243267056
1380.14+242100448+241298448+240858960+240711920+240312912+239330688+238477104
1375.64+238927600+240922288+243188480+243829216+242058688+239058352+236716992
1371.14+235780592+235816288+236397232+237202976+237445152+236542880+235104224
1366.64+234071632+233432896+233011296+233739008+236470464+239899952+241370736
1362.14+239979008+237438768+235620640+234710688+234114064+233759296+233691376
1357.64+233474144+232953904+232899728+233958032+235537680+236512752+236545456
1353.14+236072752+235460128+234842832+234507568+234875136+236046592+237540144
1348.64+238619024+239043632+239268192+239679488+240014544+240019904+240168912
1344.14+241014752+242294064+243407168+244377904+245669600+247380528+249099072
1339.64+250314784+250726544+250494688+250181744+250133872+250068544+249717968
1335.14+249575936+250423168+252248816+254211360+255686192+256898880+258418752
1330.64+260344992+262265232+263833216+265078496+266118640+266910576+267421024
1326.14+267850608+268449248+269175680+269670816+269637312+269237568+268988640
1321.64+269181952+269591552+269920992+270264608+270816576+271393056+271700704
1317.14+271823936+272024704+272249696+272305952+272335040+272664352+273216384
1312.64+273480992+273128960+272385664+271748896+271535648+271782208+272395744
1308.14+273188320+273828768+274021408+273799936+273531040+273602496+274188576
1303.64+275213824+276315360+276966432+276959168+276697664+276742720+277178208
1299.14+277718688+278236192+278739008+279029568+278880768+278490528+278365792
1294.64+278752960+279432064+280019616+280317216+280494208+280944000+281797184
1290.14+282661792+283156800+283458592+283908352+284356416+284407648+284102592
1285.64+283844960+283804864+283835872+283838496+283899616+284134784+284530624
1281.14+284953664+285296064+285579520+285806304+285831072+285636704+285510848
1276.65+285617856+285659616+285381376+285081280+285137216+285388480+285479456
1272.15+285494656+285796800+286435840+287031040+287177856+286895040+286687808
1267.65+287051936+287915552+288781600+289407712+289999840+290767840+291611136
1263.15+292283520+292726880+293229440+294196960+295595008+296848032+297575392
1258.65+298111680+298882720+299662912+299891712+299434720+298658048+297978400
1254.15+297559936+297248512+296676128+295633600+294323808+293164224+292414304
1249.65+292029664+291709216+291113568+290184480+289217184+288514880+288113664
1245.15+287898528+287767520+287637952+287432736+287048672+286349120+285361088
1240.65+284485472+284199040+284504672+284910048+284956064+284593216+284106624
1236.15+283774048+283518912+283001312+282155072+281345472+280776672+280162016
1231.65+279231808+278067168+276745312+275285888+274057760+273504000+273289248
1227.15+272453888+270569536+268213104+266240288+265051312+264504416+264214976
1222.65+263863408+263357344+262728240+262014224+261275184+260520096+259566992
1218.15+258263888+256842832+255734752+255063472+254594960+254089200+253495872
1213.65+252952592+252686912+252688112+252550752+252003856+251431744+251461024
1209.15+252163840+253042624+253646496+253892624+253917088+253960016+254312656
1204.65+255158768+256381904+257577984+258412528+259054224+260060384+261693440
1200.15+263581872+265244384+266685152+268255200+270140384+272207712+274214432
1195.65+276052896+277844192+279762144+281769664+283703392+285606912+287726560
1191.15+290123456+292582464+294955456+297407360+300237440+303499744+306827296
1186.65+309722592+312076032+314257600+316655648+319353984+322255872+325250336
1182.15+328275680+331424928+334893760+338611392+342176224+345383584+348544704
1177.65+352050976+355887744+359772416+363584192+367474816+371576512+375725184
1173.15+379594912+383143200+386670432+390377344+394206880+398168448+402356640
1168.65+406651296+410920192+415319392+419878752+424179936+428089632+432221760
1164.15+436986496+441854048+446212064+450260384+454541440+459287008+464474368
1159.65+469822688+474692928+478773472+482710560+487382624+492870112+498714560
1155.15+504682080+510677408+516408672+521652928+526570784+531613568+537383680
1150.65+544383168+552427264+560501632+567653888+573903936+579985984+586399936
1146.15+593056768+599738240+606594176+613963264+621802816+629654528+637234560
1141.65+644753216+652516608+660519296+668531264+676347392+683930752+691491840
1137.15+699300992+707262656+714929472+722074816+728943168+735865280+742981824
1132.65+750346944+757878848+765300992+772462656+779636224+787125568+794750784
1128.15+801997312+808613312+814883264+821275776+827884160+834333248+840289984
1123.65+845844096+851259008+856655680+862147008+867947840+874038912+879994560
1119.15+885392576+890202112+894726464+899306880+904037376+908693504+913073984
1114.65+917376320+921886720+926384448+930270528+933311168+935952064+938996096
1110.15+943075392+948147840+953336768+957576064+960564160+962918336+965477120
1105.65+968616640+972132544+975588352+978871808+982363392+986364800+990530816
1101.15+994172352+997016320+999421376+1001969728+1004993216+1008322176
1097.30+1011470016+1014145920+1016595008+1019332864+1022571904+1025921152
1093.44+1028633216+1030396608+1031802880+1033665152+1035956544+1038061824
1089.58+1039826944+1041484672+1042874240+1043777088+1044707456+1046224768
1085.73+1047889536+1049046656+1050096896+1051775744+1053789696+1055373824
1081.87+1056635200+1058185856+1059914560+1061199616+1062039040+1063038912
1078.01+1064384768+1065538240+1066029952+1066115200+1066513472+1067701440
1074.16+1069527104+1071354624+1072437696+1072389312+1071567552+1070941120
1070.30+1071279744+1072428544+1073516096+1073741824+1072831232+1070917952
1066.44+1068266880+1064995968+1060846464+1055351424+1048392256+1040351872
1062.59+1031508288+1021549888+1010110912+997619456+985121408+973242496
1058.73+961680256+949852800+937721728+925712256+914026624+902382400+890563456
1054.23+878888064+867730048+856788672+845471552+833965440+823123648+813107264
1049.73+802932288+791808192+780174016+768934400+758272512+747755200+737203456
1045.23+726942080+717283200+707968000+698220928+687630912+676901888+667207680
1040.73+658733312+650567808+642104000+633652288+625463488+617198080+608740416
1036.23+600514880+592543232+584202176+575486080+567563264+561402112+556526720
1031.73+551733184+546384000+540442048+533887424+526860800+520003936+513994240
1027.23+508875200+504287584+500103040+496398208+493007456+489567456+485942848
1022.73+482329792+479019744+476236224+474052672+472302400+470786048+469639840
1018.23+469184864+469373248+469779264+470212960+470956224+472359232+474637824
1013.73+477983360+482286656+486765248+490491904+493409216+496368512+500154976
1009.23+504932416+510461888+516335520+522086560+527612672+533466880+540277440
1004.73+547864256+555367424+562258496+568835264+575712128+583186176+591124672
1000.23+599047104+606281984+612544064+618429696+624858368+631901312+638734592
995.73+644885824+650849408+657163008+663551744+669432000+674810240+680189440
991.23+685791616+691220864+695956864+700042368+704068480+708286848+712075008
986.73+714662720+716108224+717083840+718008832+718861376+719531264+719895040
982.23+719785728+719161536+718100800+716657536+715034176+713584768+712254528
977.73+710431936+707779008+704617216+701119680+696949184+692147648+687494976
973.23+683454912+679546880+675189312+670468864+665677760+660716480+655267200
968.73+649197632+642663424+636046272+629746944+623784000+617746816+611417216
964.23+605231488+599707008+594528384+588781824+582186752+575479872+569315328
959.73+563449664+557467840+551619456+546372992+541688640+537305472+533168352
955.23+529039776+524326336+518829984+513166688+508056416+503653344+499763392
950.73+496213024+492900256+489837728+487089216+484384576+481151744+477237568
946.23+473220288+469736416+466852640+464296000+461869216+459527072+457328064
941.73+455356608+453576224+451946976+450662176+449863488+449147872+447899168
937.23+446105152+444289728+442788736+441634784+440880864+440464416+440102016
932.74+439796832+439910528+440216672+439563616+437154240+433709184+430756160
928.24+429084512+428252160+427381856+426104256+424737984+423622656+422515584
923.74+420937856+418956000+417116672+415721728+414623872+413599904+412497856
919.24+411222784+409951552+409094016+408775808+408679040+408497728+408139040
914.74+407407200+405990048+403933344+401835264+400437312+400082560+400444896
910.24+400761024+400418400+399376768+398029728+396890784+396329600+396333376
905.74+396538336+396756640+397148128+397593760+397543296+396963712+396704928
901.24+397280128+398092992+398521888+398996320+400243840+402131072+403936480
896.74+405374976+406829344+408729152+411003936+413159776+414794336+415873536
892.24+416516672+416914560+417578304+419136480+421588896+424238592+426564000
887.74+428598464+430378400+431687520+432534144+433283232+434305280+435857248
883.24+438044736+440462432+442268416+443053344+443371648+444093088+445559648
878.74+447533248+449580224+451270656+452284384+452590592+452680160+453488352
874.24+455633504+458502016+460602848+461198080+461026528+461022240+461132672
869.74+461000416+460952768+461470944+462246976+462520256+462007776+461093024
865.24+460396544+460298368+460531200+460385376+459620768+458827936+458446112
860.74+458023168+456939520+455235488+453249760+451221728+449653536+449155936
856.24+449483200+449533888+448532032+446504512+443692128+440523776+437878848
851.74+436303136+435200064+433752096+432093024+430661632+429313088+428110240
847.24+427824640+428293280+427627296+424667552+420920992+418131680+415621824
842.74+412388096+409753952+408969376+408260288+405928800+404092096+405218720
838.24+407268288+406735776+404355072+403451872+404462688+404893312+403114272
833.74+399369600+394642592+390334976+387463392+385450528+383064992+380171680
829.24+377365824+374988800+373423456+372690944+371479008+368808384+366177120
824.74+365369408+365257120+363994848+362728736+363460128+365010336+364809696
820.24+363151584+362162880+362054496+361345856+359571872+357442208+355474176
815.74+354216928+354721696+357159296+359822368+360815936+360244000+359559424
811.24+359252928+358646624+357794592+357663488+358079392+357586752+356142496
806.74+355883392+358113824+361383232+363674592+364908224+366411104+368719936
802.24+370491200+369554944+365928352+363275424
##END=
