##TITLE=octarelline 6 front
##JCAMP-DX=4.24
##DATA TYPE=INFRARED SPECTRUM
##DATE=31/1/2005
##TIME=16:47:46
##SAMPLING PROCEDURE=film
##ORIGIN=Vincent
##DATA PROCESSING=no operation
##XUNITS=1/CM
##YUNITS=ABSORBANCE
##RESOLUTION=2
##FIRSTX=4000.283
##LASTX=800.31372
##DELTAX=-0.64282227
##MAXY=0.14916453
##MINY=0.0064549507
##XFACTOR=1
##YFACTOR=1.3892029e-010
##NPOINTS=4979
##FIRSTY=0.0072368989
##XYDATA=(X++(Y..Y))
4000.28+52093893+51795308+50997072+50267768+49796872+49408212+49145276+49251088
3995.14+49572144+49591464+49253552+49106468+49383024+49553784+49171964+48583708
3990.00+48403348+48730760+49201108+49433196+49215128+48579920+47892428+47598784
3984.86+47805772+48222624+48445364+48310432+48072564+48200676+48753280+49121996
3979.71+48734920+47817692+47170476+47339596+48240980+49353688+50166848+50595760
3974.57+50943660+51350888+51568928+51448828+51205232+50978700+50665636+50339160
3969.43+50265308+50410932+50504292+50521336+50525120+50284244+49705620+49319048
3964.28+49654500+50386496+50695368+50278568+49580288+49173856+49207928+49450800
3959.14+49709028+49995108+50230468+50142044+49691040+49151896+48630828+48059324
3954.00+47785904+48321404+49356904+50014232+50141476+50376844+50961276+51495236
3948.86+51696608+51539756+50998960+50315496+49982612+49954404+49702216+49372052
3943.71+49847044+51288200+52619900+52861528+52131792+51066396+50036952+49158524
3938.57+48548692+48257064+48141632+48024500+47992148+48371744+49251088+50238424
3933.43+50977376+51603212+52368636+53080992+53321320+52995708+52434200+52090488
3928.29+52078552+51944220+51277016+50577380+50760140+51632204+51895532+50959948
3923.14+49680820+49021288+49049492+49462724+50091300+50712416+51234780+52078744
3918.00+53592380+55155868+55590972+54481728+52563628+50812596+49677604+49188240
3912.86+49181428+49231400+48797948+47819964+46878604+46465140+46468356+46642164
3907.72+47062272+47895648+49306552+51649252+54963572+58307792+60602908+61937836
3902.57+62881660+63057136+62045236+60970172+61209788+62013108+61276860+58385436
3897.43+54707752+51577828+49347820+48077488+47773412+48081272+48803432+50593860
3892.29+54140632+58557644+61483988+61297952+58623900+55183564+52262152+50882484
3887.15+52170260+56265916+61217000+64113516+63642424+60828812+57452280+54816788
3882.00+53818908+54967168+57737556+60280148+60615832+58440880+55256960+52656288
3876.86+51226636+51087604+52368828+54601372+56481648+56977460+56310312+55578824
3871.72+56107316+58989984+63993304+68631496+69777968+66831104+62132848+58415632
3866.58+57076708+58193516+60602344+62182460+61626340+59921708+58851748+58561436
3861.43+57812532+56070896+53931896+51945168+50505428+50299768+51371164+52758244
3856.29+54879176+60904816+73181968+88666832+100177008+103418008+99871856
3851.79+92389328+82773088+73068664+65117152+59032328+54091340+50472852+48841476
3846.65+48881604+49496240+50137876+51030408+52200568+53095020+53510680+54347484
3841.51+56486760+59145316+60828436+62246896+66123408+72888608+78501744+78813408
3836.36+74876488+70747232+68004144+65299244+61845088+58945556+57983372+58498404
3831.22+58740292+57588932+55439792+53418560+52387588+52674664+53935124+55065976
3826.08+54984616+53777588+52464328+51785648+52289244+55170668+61210356+68601408
3820.94+73433960+73285352+69089048+63309268+58472208+57308236+61453968+68920464
3815.79+74452424+74233376+69286232+62877096+56925460+52084428+48971700+47806908
3810.65+47772472+47861588+48262932+50358476+55179768+61743412+66974632+68066992
3805.51+65129528+60593604+56736460+55142792+57384152+63987800+72387976+77608032
3800.37+76566952+70794304+63994640+58851748+56364956+56211664+57083344+57450576
3795.22+56543116+54580328+52316156+50613556+49958760+50015556+49986588+49491508
3790.08+48732840+48008988+47585352+47716840+48240980+48571212+48613792+49047604
3784.94+50142804+51081924+51048592+50195244+49132404+48436088+48900908+51022824
3779.79+53865168+55534068+55201768+53755976+52356892+51355436+50573788+49835500
3774.65+49180672+48898260+49145276+49605472+50094700+51270388+53844128+57191520
3769.51+59555700+59721136+58022280+55853496+54656936+55005864+56104856+56441228
3764.37+55267388+53226176+51530092+50969988+51770488+53903272+56989032+59920192
3759.22+61323608+60911084+59780012+58889148+58109984+57074808+55985908+55460088
3754.08+56805716+62015004+71244360+80410208+84659280+84943792+86251224+89537064
3748.94+90230328+85036848+76343160+69040480+67198712+73274296+85993800+98140680
3743.80+100767544+92469552+79763680+68750360+61347736+57112192+55208972
3739.30+55072240+56693016+60374936+65757436+71407920+75655264+77484440+76739576
3734.15+74398432+72469976+72418680+73419456+73003808+69829808+64927480+60044216
3729.01+56290012+54634180+55895040+59285456+62151284+62383376+60498800+58550236
3723.87+57873272+58452652+59407756+59475748+58019624+55938672+54701120+54557192
3718.73+54576724+54181012+53666116+53457036+53637684+54019868+54380856+55250512
3713.58+58232236+64123216+70655928+73960328+73074768+70792208+69379008+68067944
3708.44+65329488+61516112+58193708+56159680+55063700+54289464+53671044+53629536
3703.30+54792140+57230424+59957036+61430972+60922292+59215956+57629364+56620528
3698.16+55867908+55349324+55392380+55739300+55627388+54899472+54156752+54014932
3693.01+55080012+57981092+62230936+65909116+68085272+70608272+75427528+80945792
3687.87+83063184+79985792+73953264+68051176+63623600+60505640+58104860+56075256
3682.73+54548088+53955404+54637972+56519968+58984096+60996204+61881192+62432432
3677.59+64967804+71499624+81376840+90754728+95129296+92954408+86297392+78796016
3672.44+74135480+74877632+80573496+87241320+90516112+89394224+85585472+80645768
3667.30+75466080+70952888+67624824+65293344+63789428+63240812+63528140+64236956
3662.16+65169856+66293940+67457640+68510736+69304704+69740056+70525568+73241672
3657.02+78357872+83696616+86231504+85231776+82379160+79630248+78358248+79505440
3651.87+83291280+89092048+95910072+102456480+107105848+108893520+108331544
3647.37+106319008+103024136+98719104+94658712+92055200+90888824+90401416
3642.87+90118320+89918480+89717128+89624320+89995776+90936392+92116408+93313200
3637.73+94759352+96623768+98572752+100196232+101561080+102900712+104124552
3633.23+104997944+105549904+106203136+108002832+112640760+121034208+131231472
3628.73+138725072+140187920+136397216+130632816+125477552+121844896+119735760
3624.23+118898872+119009800+119750264+121062856+123434400+127514704+133009080
3619.73+138277088+141585744+142547296+141829088+140127120+138164912+136915408
3615.23+136999520+138344880+140764256+144017760+146990896+148108048+147441696
3610.73+147234448+149315520+152942496+155943504+157224352+157204176+156454752
3606.23+155255680+154146160+153766400+154129904+154716640+155306416+156274320
3601.73+157984128+160128864+161915152+162939872+163667280+164749552+166144848
3597.23+167370912+168390176+169614944+171218656+173053232+175002592+176875280
3592.73+178214240+178744944+178834112+179280048+180839392+183860784+187896320
3588.23+191793408+194643392+196357216+197123808+196898352+195775712+194222016
3583.73+192757056+191882576+192106880+193451376+195276048+197051168+198795936
3579.23+200398992+201398480+201864544+202602048+204016320+205604976+206829872
3574.73+207784816+208814592+210080192+211541328+212942688+213972352+214711920
3570.23+215754320+217704720+220762976+224676464+228683248+231652928+232937072
3565.74+233033856+232972416+233110944+232982848+232342528+231832336+232294560
3561.24+233706656+235254832+236366176+237229680+238246032+239494288+240863536
3556.74+242304336+243713488+244929248+245991456+247191376+248753648+250616576
3552.24+252504800+254123744+255296032+256053136+256596992+257229984+258299024
3547.74+260002384+262142880+264310832+266350000+268317408+269963072+270841152
3543.24+271081344+271441280+272317760+273275200+273894272+274523488+275781184
3538.74+277755776+280101664+282529088+284825344+286749472+288245664+289515456
3534.24+290668128+291565152+292158848+292677344+293411392+294570048+296287168
3529.74+298467840+300615168+302206464+303232864+304158592+305310752+306549888
3525.24+307622944+308701536+310240160+312225344+313840672+314291680+313860032
3520.74+313728000+314734912+316610304+318414240+319496320+320078624+321049376
3516.24+323025120+325592768+327727776+328911456+329488256+330022016+330791264
3511.74+331936896+333618240+335876608+338534176+341196960+343290720+344385792
3507.24+344710976+345095680+346212512+348081248+350362176+352818080+355203072
3502.74+357025024+357835552+357815104+357767488+358399936+359703584+361177600
3498.24+362462112+363564800+364637920+365815968+367156032+368577760+369974784
3493.74+371389856+372812064+373918880+374500608+375052928+376275648+378051072
3489.24+379632800+380767488+381839616+383075520+384432256+386068960+387992064
3484.74+389536896+390193344+390645184+391986432+394238880+396497696+398173280
3480.24+399255200+399846816+400266304+401202784+402962304+404889312+406135232
3475.74+406770368+407671360+409439488+411726912+413608032+414519584+414847008
3471.24+415472064+416792256+418395200+419712832+420755136+422064544+424034912
3466.74+426338400+428115136+428830816+428822048+428825728+429254080+430134048
3462.24+431401376+432927744+434476960+435918336+437269920+438463680+439448992
3457.74+440528064+442109792+444130912+446176672+448067552+449780896+450981376
3453.24+451315680+451121664+451228256+452070688+453481824+455212416+457148352
3448.74+459121152+460912960+462399008+463519328+464359936+465342368+466917440
3444.24+468908576+470580992+471472832+471764480+471860448+472034688+472460960
3439.74+473211232+474283872+475708384+477354400+478696064+479379808+480020832
3435.24+481682240+484481408+487365536+489287968+490060960+490163872+490285888
3430.74+490886528+491875968+492839424+493655904+494525184+495520800+496555264
3426.24+497625664+498691904+499629632+500645152+502260000+504561888+506885376
3421.74+508500000+509332832+510015424+511331744+513313184+514933952+515303200
3417.24+515052384+515594912+517100032+518400352+518969600+519716320+521517664
3412.74+523961312+525981504+527099584+527709952+528471392+529599968+530691264
3408.24+531196096+531057568+530820896+531194752+532529184+534635904+536967488
3403.74+538973184+540296064+540907264+541309312+542309120+544131520+545955008
3399.24+546790528+546586368+546089216+545958592+546499136+547851648+549784960
3394.74+551485632+552254848+552513536+553500416+555669184+557894528+558860416
3390.24+558789184+559031168+560204224+561737600+563084416+564346368+565630912
3385.74+566743168+567610880+568379520+569146240+570020864+571136192+572292032
3381.25+573043776+573384000+573922368+575225472+577242560+579370944+580991936
3376.75+582132288+583450304+585181248+586533824+586823104+586692032+587412864
3372.25+589382784+591982912+594313152+595574464+595519296+594954368+595076288
3367.75+596051328+597025728+597548160+598114176+599268032+600915904+602590912
3363.25+603913664+604815424+605541376+606389888+607449472+608669888+609940864
3358.75+611039488+611812160+612508160+613555072+614982912+616440384+617764672
3354.25+619133376+620663168+622137536+623247936+624046144+625045312+626556288
3349.75+628071488+628867264+629158976+629847232+631096064+632138304+632550464
3345.25+632680960+632729856+632556800+632552256+633583808+635858496+638587008
3340.75+640875840+642336640+643072832+643725952+645190912+647621568+650045248
3336.25+651508672+652125440+652556352+653132672+654031616+655526208+657390656
3331.75+658753600+659187008+659353408+660030848+661130880+662228288+663440128
3327.25+665093632+666963904+668417984+669126528+669284352+669405824+670158912
3322.75+672021248+674680832+677022080+678146176+678281664+678333184+678810752
3318.25+679720128+681108096+682841536+684120256+684367936+684502976+686049088
3313.75+689018560+691990656+694221760+696177600+697976704+698968576+699108672
3309.25+699339328+700265664+701534592+702728832+703928512+705300864+706793344
3304.75+708273088+709585728+710617728+711470592+712388800+713500800+714873216
3300.25+716567296+718354368+719722880+720517888+721222592+722366080+723873664
3295.75+725104192+725321088+724344832+723060992+722880896+724240768+726047296
3291.25+727101376+727531072+728269056+729595712+730866240+731410368+731207360
3286.75+730813952+730879424+731518400+732044928+731634944+730407488+729475584
3282.25+729671040+730584960+731277312+731631424+732335552+733466752+733956608
3277.75+732968960+731155136+729792512+729105664+728351424+727342464+726772544
3273.25+726895424+726960640+726411904+725752128+725560064+725395136+724494016
3268.75+723072960+722049792+721653568+721168192+720088832+718699200+717357760
3264.25+716049216+714946560+714614016+715082880+715348032+714443264+712623552
3259.75+710851136+709452672+707972544+706218496+704754496+704219968+704606592
3255.25+705330368+705712768+705326848+704202688+702798080+701550400+700411648
3250.75+699110592+697830528+697169536+697320640+697711040+697645056+696960128
3246.25+695916352+694842112+694025664+693592960+693358464+693008896+692421248
3241.75+691640448+690688192+689591808+688459648+687429440+686618112+686080384
3237.25+685643456+684992896+684149696+683567680+683480704+683487616+683096000
3232.75+682315968+681495744+680873664+680494464+680254208+679866496+679104192
3228.25+678191040+677708480+677919296+678361664+678366784+677887872+677471232
3223.75+677418880+677409280+677107712+676621120+676144320+675657664+675183104
3219.25+674827328+674532800+674228544+674105856+674266240+674389696+674204736
3214.75+673837632+673391872+672805184+672331776+672223168+671952896+670873536
3210.25+669575680+669276288+669935168+670296064+669731776+668879552+668442048
3205.75+668355264+668145472+667480064+666357568+665084416+664026816+663290816
3201.25+662716800+662154560+661759936+661980096+662932608+663737088+663128576
3196.76+660985344+658551424+656916992+656080000+655612544+655269888+654813568
3192.26+654132672+653568576+653356096+653047040+652197824+651138752+650275520
3187.76+649285696+647767552+646172928+645367040+645542016+645972480+645684992
3183.26+644295616+642394048+640971840+640361152+640029376+639441728+638621568
3178.76+637843584+637279744+636976768+636714496+636028800+634818176+633634048
3174.26+632866240+632068032+630677248+628970752+627678336+627058880+626920640
3169.76+627109888+627408000+627367872+626710464+625647360+624550592+623664704
3165.26+623128320+622800384+622213056+621205632+620263040+619665024+618882176
3160.76+617539200+616291968+615859840+615804480+615118912+613533120+611611840
3156.26+609987072+608968896+608541952+608380096+608092416+607561024+606936448
3151.76+606413120+606062720+605691776+604995968+604026688+603221568+602765568
3147.26+602342848+601672320+600733696+599464640+597970880+596910272+596768192
3142.76+596963712+596541504+595483200+594431936+593495872+592306112+590919872
3138.26+589754496+588807040+587682944+586280960+584961536+584096192+583745728
3133.76+583705344+583660992+583341952+582659008+581775616+581043968+580664128
3129.26+580316160+579398208+577857600+576479680+575973824+576010560+575715520
3124.76+574956224+574457088+574506560+574325824+573086080+571041152+569200320
3120.26+568313856+568488384+569244160+569588480+568588096+566384704+564263616
3115.76+563344192+563476224+563654144+563219456+562328640+561348928+560219264
3111.26+558701824+557097024+556115840+555912512+555811264+555250560+554363328
3106.76+553318656+551878912+550072256+548640384+548206720+548416576+548340544
3102.26+547557504+546541440+545997184+545920832+545520960+544231808+542547968
3097.76+541518720+541619136+542400256+542995904+542714816+541539136+540309184
3093.26+539964736+540351040+540198592+538578432+535995744+533834144+532975520
3088.76+533156960+533466720+533247328+532460480+531362784+530194528+529257696
3084.26+528880704+529016160+529190752+529064704+528752512+528400544+527801504
3079.76+526646816+524936000+523070432+521701952+521386848+522042560+522784288
3075.26+522659392+521608992+520353856+519419520+518698112+517976064+517324320
3070.76+516787840+516180512+515448928+514818176+514326944+513736352+513134016
3066.26+513007328+513370112+513417952+512496640+510864416+509207808+507932448
3061.76+507173184+506889632+506710976+506231552+505572864+505128832+504784992
3057.26+504010816+502740160+501500192+500658720+500071104+499451680+498572320
3052.76+497190688+495323648+493573824+492712896+492824832+493180672+493066560
3048.26+492428928+491502848+490181696+488284032+486300768+485141792+484958560
3043.76+484926976+484418496+483717568+483238368+482789952+482009888+480888000
3039.26+479536160+478015520+476591488+475492032+474387968+472880480+471435424
3034.76+470891296+471088032+470996416+470198656+469211456+468332512+467210432
3030.26+465693600+464247520+463277280+462657568+462069920+461323232+460315296
3025.76+459103456+457958752+457069248+456300224+455482944+454636128+453736512
3021.26+452582560+451099968+449498432+448002784+446702720+445718112+445165696
3016.76+444947424+444839552+444704256+444385600+443628576+442343136+440752096
3012.27+439097632+437472288+436019872+435039328+434702016+434786176+434672704
3007.77+433708416+431904992+430240288+429748352+430268960+430624960+430024064
3003.27+428706240+427242112+425815648+424423168+423354240+423124864+423836032
2998.77+424738176+424837024+423984544+422910240+422141728+421607104+421256576
2994.27+421175936+421004992+420235840+419174752+418641920+418744352+418872064
2989.77+418724096+418486592+418255040+418029056+417957280+418001344+417803488
2985.27+417314784+417044960+417339648+417897824+418233120+418263136+418222432
2980.77+418274848+418338336+418301312+418341376+418780384+419491616+419869440
2976.27+419620576+419247232+419422624+420283168+421535872+422909824+424209696
2971.77+425187712+425630080+425561536+425313248+425297856+425623072+426057152
2967.27+426481536+427130624+428190368+429391296+430274272+430678016+430797984
2962.77+430881824+431029632+431246944+431539136+431902816+432205344+432255456
2958.27+432026912+431656128+431212896+430691552+430186368+429744416+429151648
2953.77+428211296+427050528+425832704+424499520+423152416+422225568+421879232
2949.27+421673152+421170240+420383520+419473280+418520288+417774528+417614368
2944.77+418109376+418858112+419326464+419253568+418908000+418905248+419495904
2940.27+420125376+420182560+419930432+420128416+420940736+421780896+422048512
2935.77+421590432+420698400+419996896+419927008+420119872+419772704+418771456
2931.27+417778592+417152896+416561856+415802144+415137504+414662752+414141280
2926.77+413666528+413648896+413916448+413659488+412512000+410999136+409711168
2922.27+408671648+407643008+406452704+404900992+402862656+400675264+398992704
2917.77+398113856+397716992+397315168+396716224+395945408+394890848+393316960
2913.27+391288992+389352832+387996288+387073472+386109184+385046976+384212064
2908.77+383605312+382759584+381355808+379609664+377979936+376712224+375684928
2904.27+374583584+373246048+371883040+370894656+370504416+370548288+370461632
2899.77+369569792+367770720+365984608+365387392+366039488+366721216+366309312
2895.27+364956000+363648512+362906368+362276896+361107328+359496448+358217120
2890.77+357816128+358133952+358663904+358952960+358727040+358096992+357587776
2886.27+357526592+357559776+357214880+356641728+356326176+356394272+356707936
2881.77+357302400+358234688+359210048+359766304+359728448+359326464+358976576
2877.27+358896096+358924928+358818144+358682272+358840736+359327104+359841600
2872.77+360161056+360253920+360094368+359660512+359050784+358415008+357816128
2868.27+357181504+356357952+355349216+354494624+354055968+353740000+353100320
2863.77+352269504+351657856+351159328+350407168+349576704+349074720+348707424
2859.27+347981056+347025280+346364000+346001632+345492320+344787328+344319232
2854.77+344246656+344102688+343328960+341911552+340412128+339487872+339388384
2850.27+339826048+340225568+340090688+339244448+337862112+336395520+335386784
2845.77+335101600+335156160+334770560+333578048+331995552+330623488+329619936
2841.27+328839232+328185760+327563520+326833952+326030176+325296896+324575136
2836.77+323702656+322730240+321749248+320697536+319740096+319445376+320008224
2832.27+320666976+320470016+319375200+318151200+317437280+317238240+317131872
2827.78+316654464+315577216+314046880+312528832+311531712+311241856+311419072
2823.28+311683616+311847936+311844800+311520576+310817216+310004960+309404640
2818.78+308969536+308411552+307591904+306595264+305644192+305033408+304845056
2814.28+304689504+304120416+303281536+302697856+302449088+302083296+301306784
2809.78+300274848+299170688+298044544+297128608+296796448+297011232+297203392
2805.28+296925760+296351072+295891168+295619808+295359904+295045344+294686784
2800.78+294202976+293569824+292940896+292393952+291807168+291116032+290405792
2796.28+289661184+288773920+287841696+287094624+286531520+285975680+285454880
2791.78+285197056+285285216+285517728+285522240+284941280+283735776+282375488
2787.28+281474592+281187520+281165280+281060128+280860544+280710304+280594528
2782.78+280304288+279676160+278761152+277721952+276682336+275812128+275304768
2778.28+275065280+274674816+273941280+273163584+272580000+271946784+271061856
2773.78+270252320+269970976+270199904+270548384+270617216+270121312+269054528
2769.28+267878272+267177760+266986992+266726016+265956576+264943344+264330080
2764.78+264366208+264616016+264450544+263661392+262495712+261309952+260419744
2760.28+260052960+260068592+259925824+259306656+258570832+258216640+258129008
2755.78+257799200+257038592+256046672+254959408+253792480+252757920+252267024
2751.28+252492464+253070464+253342240+252901168+251868544+250693488+249775424
2746.78+249286800+249085008+248784544+248119360+247293440+246723328+246490432
2742.28+246376112+246326528+246414432+246397104+245886848+244988080+244259872
2737.78+243967728+243759216+243211152+242378800+241698112+241463984+241490960
2733.28+241246800+240375136+239084704+237967728+237418864+237303280+237149680
2728.78+236593488+235646992+234607568+233771136+233229600+232905968+232677728
2724.28+232410960+231989312+231439264+230971136+230775168+230746448+230548464
2719.78+230005488+229345120+228941264+228904992+229011232+228931664+228452512
2715.28+227630496+226844784+226474976+226425872+226203728+225566576+224818832
2710.78+224377136+224322896+224391360+224212176+223625296+222952400+222715104
2706.28+222887184+222822944+222138672+221187120+220415440+219815056+219304720
2701.78+219055872+219046304+218824848+218119680+217317760+216999776+217177952
2697.28+217246672+216660464+215572832+214663392+214296592+214133584+213789968
2692.78+213457392+213426848+213388128+212828784+211834432+210883840+210118448
2688.28+209402880+208858592+208728496+208873728+208901456+208695232+208421952
2683.78+208197680+208031760+207861504+207407104+206347344+204933008+204011360
2679.28+204032256+204381760+204123344+203093952+201880656+201017728+200660656
2674.78+200781264+201208512+201611744+201744112+201624064+201301888+200662240
2670.28+199656832+198588816+197911216+197781984+197956272+198103184+198061696
2665.78+197735328+196979120+195890400+195013456+194864512+195242336+195448816
2661.28+195171120+194711200+194348912+194001136+193539408+193022240+192530144
2656.78+192099936+191806096+191673968+191571312+191362336+191074112+190836800
2652.28+190735808+190736400+190670048+190388224+189953568+189546080+189188544
2647.78+188815024+188519504+188426688+188353856+187969136+187284352+186706896
2643.29+186544704+186592784+186298464+185380128+184296592+183847360+184279200
2638.79+185061600+185568544+185574688+185138896+184479808+183933712+183597968
2634.29+183200224+182661248+182348160+182346368+182110128+181401152+180870000
2629.79+181134400+181921136+182633392+183096880+183294064+183041568+182371072
2625.29+181678400+181186096+180735744+180257616+179974176+179995696+180113904
2620.79+180088064+179896208+179657776+179488848+179450176+179494176+179466352
2616.29+179255392+178977360+178900608+179157520+179561856+179801856+179779360
2611.79+179648896+179491408+179136016+178513920+178027840+178240464+179122768
2607.29+179953840+180151424+179875872+179585744+179372608+179141344+179038928
2602.79+179211200+179395904+179271184+178986048+178895664+178962752+178892320
2598.29+178646864+178459072+178440896+178484304+178470288+178357664+178125072
2593.79+177799008+177547552+177610864+178009488+178383296+178287424+177722688
2589.29+177132208+176855344+176872704+177152528+177752864+178386656+178428288
2584.79+177705136+176909776+176848064+177560976+178407168+178731920+178321936
2580.29+177498240+176930880+177083296+177721488+178207536+178293344+178294128
2575.79+178515088+178863904+179080944+179031632+178742368+178433408+178465184
2571.29+178992160+179691536+180057456+179924624+179557904+179311456+179312224
2566.79+179410288+179414448+179371232+179503840+179840160+180153200+180342096
2562.29+180576832+180958256+181328080+181555568+181717504+181916576+182114496
2557.79+182192112+182053440+181719872+181394624+181296480+181451296+181789200
2553.29+182304096+182920848+183396432+183653312+183976608+184559488+185082160
2548.79+185108848+184740544+184507888+184666032+184930720+185001312+185052288
2544.29+185428544+186000624+186286592+186236752+186403856+187160096+188192176
2539.79+188989792+189386912+189436816+189213680+188980288+189149360+189830784
2535.29+190631824+191068560+191030336+190829088+190875264+191332816+191996512
2530.79+192507552+192683936+192668464+192786992+193223840+193826864+194301120
2526.29+194585088+194865104+195220912+195521616+195683488+195794192+195988208
2521.79+196355824+196878496+197315504+197380640+197177168+197166880+197563456
2517.29+198086096+198419040+198571360+198727824+199025264+199536272+200186448
2512.79+200752448+201112304+201437632+201960560+202677392+203389664+203914512
2508.29+204176272+204247856+204342160+204617280+204952704+205116064+205128800
2503.79+205265712+205674832+206225936+206784880+207371648+207972208+208466768
2499.29+208851408+209270576+209709744+209969792+210024192+210109488+210365776
2494.79+210664960+210844560+210894784+210917904+211064032+211409728+211804304
2490.29+212045408+212282512+212932512+214073104+215217280+215865504+216057776
2485.79+216193760+216462160+216676016+216648272+216492320+216398448+216345136
2481.29+216270656+216310176+216528656+216704992+216764512+217088064+217974400
2476.79+219130032+220057952+220567600+220635008+220260496+219726896+219526784
2472.29+219804672+220263488+220654208+220982736+221305760+221623584+221937616
2467.79+222212512+222389952+222502192+222619088+222730112+222823168+222952224
2463.29+223112528+223250800+223428128+223754784+224195360+224640016+225052272
2458.80+225378912+225492880+225381920+225156832+224879680+224653808+224731136
2454.30+225184848+225710560+226092944+226528032+227104288+227444560+227306480
2449.80+227091072+227252768+227586224+227610096+227380032+227397840+227804880
2445.30+228144208+228021552+227655168+227525696+227715904+227915120+227987664
2440.80+228154800+228570960+229021072+229171856+228973952+228714704+228695872
2436.30+228895392+229004640+228874096+228777872+229068800+229659744+230102528
2431.80+230101536+229776048+229455200+229402240+229687984+230148096+230482464
2427.30+230527200+230409232+230350288+230396416+230434736+230405424+230349088
2422.80+230259216+230092752+229939712+230033568+230481472+231062416+231416768
2418.30+231376832+231066656+230730592+230555680+230579728+230657392+230547632
2413.80+230186384+229840592+229837840+230158320+230505520+230715152+230836336
2409.30+230864624+230713760+230454384+230271232+230179168+230095136+230110368
2404.80+230376352+230767920+230967536+230828304+230482896+230129648+229871920
2400.30+229684800+229496272+229294992+229140384+229052736+229045344+229203536
2395.80+229548256+229836608+229791088+229456384+229090656+228820976+228650576
2391.30+228628512+228739184+228796112+228668016+228435872+228252448+228226400
2386.80+228445888+228856448+229159248+229071616+228698256+228437040+228579440
2382.30+229152624+230045392+231094320+232107296+232992480+233889408+235044896
2377.80+236545280+238288480+240225616+242447696+245002592+247792768+250739504
2373.30+253852096+257052160+260166176+263194528+266363200+269808064+273409216
2368.80+277000128+280508096+283813120+286692672+289061664+291116864+293137760
2364.30+295160832+296948736+298247872+298974432+299169632+298919072+298371264
2359.80+297639136+296569024+294823968+292303904+289274432+286002624+282521760
2355.30+278800256+274891936+270828960+266544800+261951792+256968016+251522368
2350.80+245690688+239910128+235071600+232282496+232245168+234691536+238577872
2346.30+242879648+247045168+250822912+254127200+257075840+259790960+262145120
2341.80+264034224+265668288+267228112+268429504+268884352+268735872+268561472
2337.30+268740128+269127808+269259840+268762880+267713040+266608512+265814560
2332.80+265137856+264175568+262934896+261733008+260598576+259199344+257357280
2328.30+255238000+252998752+250659376+248433280+246716880+245532256+244366672
2323.80+242836928+241136288+239579568+238075936+236380064+234518592+232663248
2319.30+230834528+228978576+227143952+225429568+223903920+222600464+221416160
2314.80+220092560+218531072+217011536+215822976+214866400+213901488+212983392
2310.30+212297456+211699248+210799680+209492560+208136320+207189440+206784096
2305.80+206637568+206314512+205582704+204556016+203534224+202715568+202080224
2301.30+201456512+200665024+199726352+198925776+198541568+198457968+198290592
2296.80+197904848+197567008+197457024+197350656+196977136+196421328+195912240
2292.30+195484144+195093968+194846064+194777440+194631680+194172848+193524336
2287.80+192972096+192630624+192443360+192252912+191802144+191002816+190214752
2283.30+189844480+189711008+189329696+188703584+188251936+188062736+187838528
2278.80+187458640+187085104+186838432+186772960+186938352+187161280+187132608
2274.31+186880000+186723904+186655872+186315264+185646656+185018288+184668400
2269.81+184532592+184545056+184662464+184720784+184618176+184494832+184472688
2265.31+184424096+184156848+183638656+182957568+182268160+181747136+181423248
2260.81+181140496+180792800+180434864+180115296+179849216+179759024+179933504
2256.31+180108384+179856912+179150592+178441088+178119744+178137904+178172032
2251.81+177942608+177329808+176424544+175551472+175065856+175069200+175374096
2247.31+175692384+175772624+175491936+174986448+174567104+174395296+174355104
2242.81+174293040+174134448+173778464+173208816+172703280+172546544+172626304
2238.31+172646000+172548512+172351424+171877312+171096624+170410800+170167584
2233.81+170222880+170273248+170241968+170106992+169791216+169396576+169199872
2229.31+169305104+169519312+169562016+169290944+168855072+168617296+168725872
2224.81+168832464+168493392+167708272+166855504+166278480+166113200+166303424
2220.31+166629280+166868480+166898736+166627904+166067024+165510400+165285248
2215.81+165301936+165230832+165003536+164745824+164459072+164184704+164135008
2211.31+164274064+164225952+163866768+163503920+163263808+162922000+162476816
2206.81+162296064+162527856+162815632+162697856+162081568+161293312+160728288
2202.31+160410304+160032384+159522272+159223664+159324816+159545232+159583872
2197.81+159419152+159064432+158522384+158043120+157949824+158190512+158461616
2193.31+158628240+158689008+158574336+158278912+157969232+157726592+157422640
2188.81+156968256+156473952+156094320+155865952+155722768+155606624+155551984
2184.31+155591744+155568064+155242560+154674736+154218784+154076464+154138720
2179.81+154246576+154284944+154085856+153629792+153203344+153045040+153012352
2175.31+152907856+152822144+152858544+152841120+152599680+152248688+151948000
2170.81+151674160+151370608+151105008+150951888+150907680+150939760+151007024
2166.31+151040080+150982192+150828496+150599712+150370368+150254816+150241312
2161.81+150135744+149797344+149321392+148884768+148536944+148262800+148089088
2157.31+148010560+147934368+147792544+147618672+147459856+147294800+147107312
2152.81+146959648+146925280+146943808+146823520+146486256+146142016+146049072
2148.31+146140448+146109584+145877648+145715408+145811264+145980336+145931728
2143.81+145642368+145306240+145019296+144689056+144268528+143914752+143786176
2139.31+143812704+143828112+143829680+143878656+143872416+143665584+143329648
2134.81+143030816+142813120+142712496+142829712+143080544+143169488+142997056
2130.31+142747968+142472016+142008464+141436784+141121360+141186848+141352944
2125.81+141372240+141320416+141390768+141576192+141606608+141221760+140565248
2121.31+140125952+140163760+140391968+140445776+140340912+140271920+140265488
2116.81+140244832+140190080+140131408+140140384+140243664+140267248+140000656
2112.31+139608592+139482720+139654576+139775776+139659840+139381408+138950672
2107.81+138372544+137903360+137806000+138017488+138318784+138573936+138599648
2103.31+138202704+137520720+136964288+136714688+136596352+136458544+136381648
2098.81+136474112+136662736+136727152+136503504+136098048+135810608+135758464
2094.31+135743088+135602368+135461504+135496528+135641888+135695584+135577872
2089.82+135399616+135360320+135580016+135954224+136213088+136167152+135899536
2085.32+135675744+135668160+135768576+135724592+135447280+135062624+134649216
2080.82+134207240+133906728+133978688+134259168+134217352+133640672+132972336
2076.32+132778496+133140344+133649232+133847416+133586440+133082392+132645520
2071.82+132416312+132415544+132664568+133055952+133306584+133278976+133166000
2067.32+133184088+133324472+133498336+133663040+133708936+133511352+133169704
2062.82+132911104+132740008+132485504+132164384+132021120+132169816+132431672
2058.32+132574752+132568920+132483176+132279456+131847168+131266072+130839160
2053.82+130819160+131189504+131737944+132137552+132014712+131263168+130329152
2049.32+129918112+130281376+130982160+131425224+131448760+131332136+131336800
2044.82+131364024+131093128+130437168+129741944+129478960+129763120+130221152
2040.32+130349168+130074880+129843336+129979304+130154712+129878496+129294456
2035.82+128933064+128844920+128662976+128394048+128446088+128942000+129587152
2031.32+130067120+130119552+129558792+128673848+128184776+128394256+128852688
2026.82+129105896+129192312+129183384+128941216+128572312+128495792+128835192
2022.32+129212504+129313496+129238152+129201816+129189200+129046456+128793448
2017.82+128737728+129186680+129973088+130463016+130167720+129205128+128104400
2013.32+127397072+127411632+128113528+129032296+129606192+129651432+129316992
2008.82+128754032+128137208+127817696+128049856+128604720+128960648+128865104
2004.32+128512888+128223984+128151192+128274280+128502400+128734632+128896944
1999.82+128966264+128949584+128855016+128701616+128580648+128650544+128990160
1995.32+129441096+129716312+129725240+129753208+130193368+131035792+131683704
1990.82+131476544+130473512+129480904+129153280+129304560+129394480+129408848
1986.32+129740984+130323344+130518776+129999688+129234080+128912288+129296400
1981.82+130212408+131220016+131709744+131308832+130376168+129708144+129643072
1977.32+129852840+130038168+130324688+130812536+131272096+131519864+131684496
1972.82+131882920+131976232+131852216+131622672+131387712+131116432+130885016
1968.32+130925632+131260432+131564952+131582264+131465248+131478872+131591384
1963.82+131619000+131618024+131783800+132068360+132226976+132204224+132152128
1959.32+132109368+132033768+132067784+132360520+132699568+132729504+132450728
1954.82+132143776+131957952+131918480+132095184+132398232+132500480+132286656
1950.32+132083320+132158552+132375088+132539552+132690624+132870264+133011232
1945.82+133128472+133358704+133860256+134845504+136368208+137823520+138180496
1941.32+137133456+135530768+134378608+133958280+134050464+134370224+134581872
1936.82+134437760+134119128+134075176+134474320+135125840+135779664+136182336
1932.32+136100784+135639168+135288912+135369856+135677504+135885744+135975824
1927.82+136101568+136315472+136563840+136771360+136946944+137326208+138181856
1923.32+139268208+139820400+139414336+138485696+137756736+137669104+138572576
1918.82+140692336+143340576+144868016+144192800+142012560+139931472+138876656
1914.32+138734832+138956304+139102624+139086464+139204912+139764656+140564096
1909.82+141026032+140931504+140675936+140682384+140864256+140857424+140565840
1905.33+140250672+140177200+140419648+140919408+141520240+141979232+142162144
1900.83+142210688+142277184+142230000+141924432+141656336+141960496+142968192
1896.33+144253472+145237904+145571120+145264464+144653152+144094064+143652720
1891.83+143340576+143515376+144617232+146377296+147723584+147776704+146713776
1887.33+145437216+144637920+144449792+144751136+145366544+145994592+146367536
1882.83+146580960+146864144+147056320+146793056+146179296+145720272+145649824
1878.33+145855968+146301728+146980528+147690544+148286816+148805040+149086448
1873.83+148867184+148388240+148239728+148636592+149632368+151705648+155017392
1869.33+158335760+159859392+159111888+157106192+154966480+153258528+152182368
1864.83+151626032+151286880+151132592+151428304+152198416+153006480+153401984
1860.33+153384368+153343072+153586336+153999344+154283568+154439408+154696656
1855.83+155037760+155239824+155326192+155523200+155887696+156300384+156641264
1851.33+156755472+156567984+156335856+156528624+157450672+158974256+160338544
1846.83+160677472+160710432+163047056+168981744+175343344+176966960+172854736
1842.33+166861200+162443056+160045904+158898784+158678608+159250512+160272992
1837.83+161276240+161730480+161481872+161162832+161378832+161785200+161809760
1833.33+161638240+161725552+162383024+164364208+168277504+172739728+174897568
1828.83+173637232+170635328+168047024+167041440+168045456+170302384+171656624
1824.33+170667392+168478448+167104336+166918400+167062080+167091760+167046768
1819.83+166828960+166487184+166429792+166735024+166873984+166477152+165886832
1815.33+165711200+166172544+167001168+167812064+168547504+169502416+170831536
1810.83+172131280+172740304+172436688+171701904+171225952+171247200+171437536
1806.33+171432048+171222592+170985040+170877392+171207632+172284672+173836400
1801.83+175119056+175911200+176729936+177674560+177877520+176696816+174875088
1797.33+173871056+174260352+175093248+175059936+174512928+175842992+180892304
1792.83+187961040+192491120+191681472+187132000+182103632+178296688+175897792
1788.33+174792336+174667392+175031760+175907648+177680880+179785872+180617888
1783.83+179441088+177469248+176527664+177371424+179352880+181036832+181225600
1779.33+179978896+178420576+177448736+177289776+178090944+179697648+181068224
1774.83+181756400+183802304+189799520+198657328+205160432+205094000+199333088
1770.33+192003840+187054864+186464192+189062464+191020240+189530448+185746512
1765.83+182584608+181089952+180501216+180701968+182873424+187538576+192751712
1761.33+195037456+192874000+188525648+185461584+185113792+186935168+189993568
1756.83+192921760+193700192+191707824+188867280+187200064+187167232+189404928
1752.33+195231232+203452304+209186288+209032112+205335744+202355152+201257360
1747.83+200700384+199748608+198538400+197432656+196885856+197485216+199328528
1743.33+201456320+202360704+201739920+201714480+204886256+210491552+213981520
1738.83+212206528+207229248+203013040+201539760+203957856+212250832+226573760
1734.33+241460736+247964672+242217504+229410256+217765440+211781616+210865888
1729.83+211692656+211639824+210549760+209544560+209197456+209290096+209571264
1725.33+210119440+211146368+212697936+214469632+215935808+216786480+217265040
1720.84+218227984+221126928+227692048+238682864+251942256+261881920+263472240
1716.34+258106160+252128864+249406672+248419552+246207360+242830704+240477360
1711.84+240274336+241799184+244290496+246920960+249066032+251342464+255244896
1707.34+261195504+267961264+274104992+279051264+282769760+285286240+286762304
1702.84+288564224+294629632+309814848+333989184+356952128+364888576+356489504
1698.34+344025056+339837056+349272448+369778464+390357856+398058368+391979616
1693.84+383193280+380649408+384822336+392004128+400031680+408807584+417999680
1689.34+426836480+434989664+442059392+447728416+454027136+465786976+486294432
1684.84+511361696+529399808+532543776+524982720+516173504+512130272+513893376
1680.34+519436896+525865600+531415904+536231456+541513856+548839168+559984320
1675.84+574961216+589276160+596463744+595962688+594351872+597493824+605427136
1671.34+615039488+625122880+636503168+648089920+656028160+658179904+657281600
1666.84+657836160+661755264+668112512+675971520+686000064+698854400+712752256
1662.34+723835520+729871808+732731072+735943296+741021568+747262144+753797952
1657.84+760135552+765548800+769996416+775307968+784265344+799101184+820407872
1653.34+843704832+856183104+846346048+819811072+792916928+776019584+769646912
1648.84+769436736+771414144+774180864+778018560+782036032+782255680+775026432
1644.34+762591872+751223168+744271936+740193344+736637824+733287232+730062208
1639.84+726033920+721227520+716764864+713138944+710867008+711650752+715060672
1635.34+714613248+702702720+680363584+655618048+634403648+617672320+603794944
1630.84+590953600+578330624+566521152+556389184+547150720+536536096+523300992
1626.34+508816832+496006944+487280832+482819136+479823360+474065312+463604000
1621.84+450548288+438591840+429705536+423227680+417766880+414151296+415458400
1617.34+422339200+428394176+424259872+409312224+392553184+381271168+375416608
1612.84+371306752+366939776+362810688+359752320+357771232+356116288+353827488
1608.34+350800320+347951520+345669888+343172352+340180672+337809184+336793760
1603.84+336290144+335326208+334095136+333083200+332189728+331240992+330340576
1599.34+329503360+328754560+328377024+328452128+328620224+328760544+329222592
1594.84+330041728+330667808+330736160+330513920+330476864+330824192+331290464
1590.34+331412320+331231264+331502048+332775456+334703584+336667808+338465856
1585.84+340021120+341222080+342283648+343510080+344799840+346086976+347762816
1581.34+350024128+352538368+355051744+357405632+359578176+363431488+372956288
1576.84+389399264+405718080+410712256+402581632+390852960+384158560+383682848
1572.34+386301504+390250144+396710304+406331552+415854272+420155680+418148736
1567.84+413969440+411921632+413176096+416939776+421984736+426699776+429696544
1563.34+431077536+432588800+437120576+447973088+466479392+489121280+508947488
1558.84+521354048+525093568+518954432+504720416+490896320+486617312+493242208
1554.34+503308736+508036064+505980096+502254592+501661216+505232032+510991680
1549.84+515994624+518226112+517622624+515744480+514774240+516595520+521582976
1545.34+527322592+529874304+528424608+527116864+529758496+534760864+538109248
1540.84+540198400+544458048+549169920+546359296+531975104+511846048+494151904
1536.35+482514016+476715424+475671264+478044608+480762016+479484064+472623584
1531.85+463180032+454899904+448758144+444143136+441064480+439415904+437927488
1527.35+435915104+434550208+434450240+433499840+429220672+422710816+418296352
1522.85+419519744+425994176+432996480+433981120+425525472+410813632+397348608
1518.35+391005120+391535040+393090048+390401280+383719712+376050976+368993344
1513.85+363269664+359720736+357503200+353962240+348293088+342929472+340125824
1509.35+339953408+342344576+348404992+358007520+366985024+368430816+358362336
1504.85+339851808+320300128+305506336+296974944+292848416+290177824+287505216
1500.35+286044480+287339328+289800416+290074784+288574816+289361088+292808512
1495.85+292896896+285249088+273758048+264790000+260121472+258260352+258746128
1491.35+262131120+266965264+269643712+268089200+264111296+260960512+259421456
1486.85+257404208+253319424+248452480+244998976+243255040+242097136+241219600
1482.35+241314608+242365312+243198832+242963392+241993648+241050128+240815264
1477.85+242290640+246171504+251095888+254185392+254846592+256325152+261773904
1473.35+270186720+277177632+278933728+274710208+266749136+258973440+254517488
1468.85+253508160+253722736+253564736+253766016+256175456+261302656+266670592
1464.35+268135520+264452144+259189632+256308768+256154256+257222128+259476336
1459.85+263726048+269887072+278299968+290253696+303808608+311304640+306696416
1455.35+293894688+281678912+274592224+271798368+270756800+269826752+268441056
1450.85+266770240+265786160+266688848+269551296+272649344+273673216+271873152
1446.35+268641472+265881712+264351808+263584752+262870624+262074400+261539280
1441.85+261454816+261600080+261632880+261305136+260875056+262011360+267271344
1437.35+276634464+284515904+283696608+274098304+262875904+255746944+252811872
1432.85+251717488+251533280+252621376+254751376+256817280+257583056+256448128
1428.35+254150016+252238768+251347072+250928912+251009888+252535136+255292016
1423.85+257286608+257091200+255418800+254231872+255904304+262432480+272773152
1419.35+281067264+281344704+274721440+267474528+263355696+261678704+260929728
1414.85+261015200+262041360+263335424+264366976+265345344+266493440+267461920
1410.35+267830784+267852912+268308672+269564896+271103488+272438720+274098528
1405.85+276825024+279931296+281571232+281038688+279704704+279103424+279217888
1401.35+279491136+280462432+282972352+286072672+287291360+285384832+281745792
1396.85+278899872+278582464+280786528+283409344+283376032+279532288+273974016
1392.35+269562688+267138800+265693872+264148592+262475648+261714128+262897808
1387.85+265335392+266391600+264126096+259614592+255416944+252785616+251326288
1383.35+250288736+249231312+247992720+246646704+245295056+243894608+242568096
1378.85+241684224+241258064+240740768+239797872+238903280+238877728+240012528
1374.35+241538848+241965056+240470096+238006992+236301872+235921472+236134080
1369.85+236337264+236492016+236429104+235925664+235313472+234957712+234491280
1365.35+233651232+233411680+234952880+237696304+239581392+239437136+238033296
1360.85+236626640+235613664+234878368+234434640+234161680+233667328+233012768
1356.35+232988480+234061488+235556784+236461440+236623072+236575200+236557504
1351.86+236364368+236011936+235957440+236510496+237338848+237830032+237885920
1347.36+238033088+238711424+239793424+240987328+242268464+243553136+244370704
1342.86+244408960+244133936+244431952+245756608+247813552+249832352+250995552
1338.36+250984448+250263472+249577200+249183664+248976432+249198384+250364624
1333.86+252420768+254645040+256539360+258219296+259859616+261405984+262978448
1329.36+264863424+266889376+268397616+269062240+269259424+269532832+270101600
1324.86+270898048+271623776+271815040+271312000+270628192+270428896+270750720
1320.36+271139456+271430080+271906912+272664384+273265248+273222336+272632448
1315.86+272106144+272113632+272561312+273050912+273355136+273508448+273560736
1311.36+273486912+273318112+273182880+273207904+273464960+273958592+274550336
1306.86+274972512+275007904+274706784+274428640+274643712+275542656+276744416
1302.36+277543968+277623200+277395936+277480256+278002176+278635456+279123968
1297.86+279445728+279625824+279709824+279878912+280339744+281065632+281745792
1293.36+282007392+281760480+281409760+281553696+282267232+282924224+283038048
1288.86+282963168+283348320+284219168+285058016+285473408+285380320+284883104
1284.36+284404064+284525696+285294592+286065728+286336320+286303424+286346144
1279.86+286464768+286518688+286568320+286698368+286831968+286921632+287060512
1275.36+287308704+287550976+287549536+287127104+286424320+285987104+286327936
1270.86+287335488+288327392+288742848+288627776+288483104+288776544+289561856
1266.36+290414400+290854848+290886752+291018048+291654368+292669152+293718432
1261.86+294723424+295787936+296797120+297502816+298000256+298659712+299493216
1257.36+300062720+300179264+300157920+300127584+299690912+298701120+297779712
1252.86+297492352+297463040+296890912+295669984+294403008+293481024+292698656
1248.36+291815392+291004544+290512352+290172288+289622560+288896320+288376832
1243.86+288209664+288145920+288010272+287887264+287816160+287694592+287475392
1239.36+287076256+286272992+285155584+284424448+284580000+285039040+284734272
1234.86+283476864+282093088+281298848+281046656+280956128+280778592+280299200
1230.36+279257856+277642912+275844672+274307424+273089536+271886560+270441088
1225.86+268833152+267373408+266301296+265606608+265146976+264787376+264384016
1221.36+263732752+262724096+261473424+260188272+258956640+257797344+256786544
1216.86+256013280+255521072+255356496+255474608+255581520+255322336+254687904
1212.36+253974592+253362864+252823776+252378960+252169872+252297728+252801584
1207.86+253681520+254804768+255872128+256679120+257302432+257956608+258726288
1203.36+259505072+260169408+260784112+261580208+262718624+264194640+265976640
1198.86+268047984+270191168+271984160+273240640+274319040+275804800+277942912
1194.36+280481600+283018464+285354848+287558944+289809184+292213056+294708896
1189.86+297115936+299413248+301932064+305051104+308624832+311968352+314532736
1185.36+316415072+318175936+320368256+323213344+326498272+329848352+333181696
1180.86+336725728+340480288+344024480+347107712+350148736+353787616+358070016
1176.36+362416064+366452384+370503168+374916960+379310720+383069024+386356288
1171.86+389839552+393640960+397439360+401391968+405928512+410822144+415479008
1167.37+419861600+424248736+428503424+432436032+436423488+440920544+445877376
1162.87+451058176+456314080+461322176+465845824+470328832+475403104+480824192
1158.37+485743808+489974880+494207360+499036832+504444128+510178400+516085376
1153.87+521978464+527615104+533010592+538587648+544790464+551647936+558865600
1149.37+566185472+573343680+579943808+585871360+591643456+597900800+604772096
1144.87+612082496+619746560+627577408+635232320+642719424+650454720+658550976
1140.37+666601344+674304192+681772992+689156992+696449024+703701952+711052544
1135.87+718560320+726202176+733870656+741304512+748280832+754929344+761655040
1131.37+768805760+776512576+784636928+792730368+800313856+807250048+813682048
1126.87+819786624+825858752+832312448+839192640+845977088+852218240+858014656
1122.37+863604736+869003968+874351744+880028672+886041024+891728576+896480384
1117.87+900421888+904162432+908156608+912500992+917099456+921793408+926382272
1113.37+930629760+934333376+937535040+940629440+944141440+948261056+952592832
1108.87+956449920+959536896+962302592+965369152+968659456+971531264+973835200
1104.37+976266752+979492928+983459328+987707648+991844160+995611200+998974208
1099.87+1002146688+1005197696+1007952640+1010619392+1013840832+1017590464
1096.01+1020828672+1022919232+1024589312+1026785536+1029368832+1031685952
1092.16+1033651648+1035605760+1037668608+1039822976+1042144064+1044500992
1088.30+1046475840+1047925056+1049233920+1050752000+1052333440+1053652416
1084.44+1054672704+1055554560+1056399808+1057317632+1058484352+1059969664
1080.58+1061716544+1063744064+1066000064+1067943424+1068792640+1068388160
1076.73+1067445824+1066856448+1067160320+1068545536+1070734336+1072802624
1072.87+1073741824+1073417792+1072648704+1072322944+1072659328+1073248640
1069.01+1073548096+1073280896+1072461504+1071072960+1068806272+1065243520
1065.16+1060296064+1054341312+1047837312+1040770432+1032616960+1022981120
1061.30+1012113472+1000520768+988282048+975216000+961672384+948582336+936564992
1056.80+925293120+913951104+902174080+890389248+879175488+868502912+857849920
1052.30+846975808+836132096+825488704+814813056+803797696+792330752+780510080
1047.80+768729664+757571136+747202496+737201088+727318464+717849088+708732224
1043.30+699044736+688235648+677226240+667353920+658661632+650194944+641549312
1038.80+633060608+624756288+616265408+607739968+599768256+592228928+584249088
1034.30+575644288+567477952+560753536+555188032+549765248+543918720+537695744
1029.80+531278208+524923232+519062432+513931840+509223360+504471040+499633600
1025.30+495074368+491140480+487923232+485213120+482527104+479425792+476022560
1020.80+473021536+471081120+470241984+470007616+469906720+469952416+470519008
1016.30+471736992+473209504+474579264+476100864+478312960+481332736+484871744
1011.80+488706432+492719872+496740736+500744832+505134144+510451264+516790112
1007.30+523593184+530126464+536266848+542664000+549843840+557434368+564796224
1002.80+572027072+579612032+587365568+594603840+601210176+607769856+614748672
998.30+622045184+629177216+635588480+641090176+646298752+652228544+659143808
993.80+666147712+672229440+677405312+682472640+687747776+692623488+696628544
989.30+700309504+704453696+708765824+712157312+714206016+715566592+717023616
984.80+718804416+720729344+722405440+723306368+723143872+722201216+721084928
980.30+720165056+719282624+717878912+715495360+712321664+709105472+706336640
975.80+703662208+700320704+696044608+691297344+686605312+681944000+676982080
971.30+671759040+666674240+661790976+656590336+650600448+643987456+637373632
966.80+631244544+625583616+619981952+614107264+608008256+601851008+595546944
962.30+588999360+582509888+576531520+571124864+565995200+560886656+555637376
957.81+550158464+544646080+539546880+534990304+530478336+525445888+520027072
953.31+514980064+510793504+507145120+503402432+499368224+495286592+491381216
948.81+487720256+484280768+480866752+477282528+473728768+470597824+467811392
944.31+464993248+462276672+460144480+458493664+456697056+454619296+452775744
939.81+451448288+450325728+449050912+447634432+446274528+445044672+443817728
935.31+442484640+441196000+440198560+439478528+438897792+438575968+438595040
930.81+438443456+437410496+435534880+433528608+431840128+430348896+428912256
926.31+427601696+426431104+425262240+423949344+422403648+420627872+418789344
921.81+417081184+415491808+413883712+412276000+410857024+409805056+409186016
917.31+408865504+408477824+407747168+406806048+405886112+404880192+403671648
912.81+402662592+402293152+402238496+401813856+400952832+400060704+399158432
908.31+397981120+396716864+395886816+395688256+396012064+396793408+397824704
903.81+398587488+398765920+398624544+398565696+398661568+398871584+399324192
899.31+400149024+401248576+402467392+403835744+405517792+407528320+409605120
894.81+411459264+413093792+414685952+416209984+417415264+418220512+418836832
890.31+419529344+420521024+422043648+424149536+426503904+428664320+430452864
885.81+431823264+432655328+433123584+433981984+435837184+438285920+440448032
881.31+442198656+444088384+446161920+447796352+448816896+449770560+450813024
876.81+451341312+451181152+451340448+452866048+455396544+457474976+458180416
872.31+457995904+457980000+458472928+458926112+458851232+458491040+458475744
867.81+459148352+460304064+461319968+461536864+460794848+459643072+458809568
863.31+458509856+458363776+457940032+457256064+456602752+455866816+454419072
858.81+452034336+449513920+447790336+446737728+445490784+443463680+440590240
854.31+437277408+434559424+433448992+433546592+433179872+431336352+428656640
849.81+426297440+424549856+422703552+419921696+416193120+412242016+408548512
845.31+405204704+402893184+402325856+402411648+401242816+399340480+399281664
840.81+401503168+403338368+402858208+400864256+398361024+394776928+389947616
836.31+385792096+384237984+384421536+383725984+381186112+378181184+375825504
831.81+373537472+370622752+367430144+364518784+362373760+362027520+363983680
827.31+366447808+366605376+363880896+360399424+358183072+357363616+357141152
822.81+357105856+357190912+357058016+356053888+353858528+350985248+348544704
818.31+347602048+348549984+350535808+351587840+350313216+347673024+345918784
813.81+345667392+345502560+344627552+344063360+344544544+345199136+345382688
809.31+346084672+348112288+350298176+351029024+350484320+349928256+349823200
804.81+350106656+351325696+354014848+357448256+360083904+360962176+360503968
800.31+360264992
##END=
