##TITLE=octarelline 6 front
##JCAMP-DX=4.24
##DATA TYPE=INFRARED SPECTRUM
##DATE=31/1/2005
##TIME=23:39:51
##SAMPLING PROCEDURE=film
##ORIGIN=Vincent
##DATA PROCESSING=no operation
##XUNITS=1/CM
##YUNITS=ABSORBANCE
##RESOLUTION=2
##FIRSTX=4000.283
##LASTX=800.31372
##DELTAX=-0.64282227
##MAXY=0.1879271
##MINY=-0.003559449
##XFACTOR=1
##YFACTOR=1.7502075e-010
##NPOINTS=4979
##FIRSTY=0.018171059
##XYDATA=(X++(Y..Y))
4000.28+103822313+104330680+104695368+104752912+104406880+103714048+103098504
3995.78+103117464+103735640+104152528+103797176+103134888+102899464+102928136
3991.28+102556472+101801744+101349512+101567544+102153880+102575440+102516552
3986.78+102110576+101826400+101913464+102134160+102258536+102414664+102718016
3982.28+103031128+103266096+103428160+103369560+103001992+102581128+102310320
3977.78+101969560+101398048+100949584+101053728+101601744+102062800+102055712
3973.28+101688336+101404216+101437024+101540728+101458448+101410376+101794048
3968.78+102633088+103617992+104418768+104738864+104415672+103669480+103006144
3964.28+102716632+102588992+102180712+101448432+101015216+101493424+102519936
3959.79+103024656+102530576+101543656+100667088+100123128+100097264+100655232
3955.29+101311152+101438264+101105184+100968696+101391744+101976344+101877408
3950.79+100603640+98658936+97169936+96697176+96863416+97246840+97952184
3946.29+99097600+100308384+100881192+100135760+97924024+95218400+93772312
3941.79+94608496+97020896+99367448+100586848+100806184+100816968+101201616
3937.29+101914552+102576520+103001216+103257320+103187768+102128304+99514928
3932.79+96007560+93505528+93343656+94810568+96244792+97161944+98311464
3928.29+100053536+101683408+102151880+100871648+98207288+95450024+93852504
3923.79+93777848+95107592+97505576+99595144+99446280+97068576+94906736+94586832
3918.64+94679776+92994768+89841936+87789952+88805304+92399984+96464352+99418408
3913.50+101132760+101995912+102189024+102130160+102394312+102808520+102803888
3909.00+102558784+102411584+101698672+99590680+96023088+90693352+83201480
3904.50+75336192+70382176+68830200+68099960+67288464+68112568+70553360+72104592
3899.36+72306496+74034816+79193104+86244512+92615832+96994440+99107912+99403944
3894.22+98995240+98221896+95362712+88608024+79829800+74599304+76820840+84548840
3889.07+92804208+98415792+99729560+94420272+82174352+68847840+63185536+67973328
3883.93+77983264+86875048+91988760+92728832+88908016+82440848+77916728+79007288
3878.79+84931896+91974016+97498488+100920784+101618696+98361928+91613664
3874.29+84874352+82333208+84998784+89098568+88238200+78390800+62519584+49958224
3869.15+48962720+59426408+74072304+85105304+88299496+83626552+75257072+69907792
3864.00+71649368+77831872+82491608+83542888+84184800+87468048+92518800+96784520
3858.86+98772072+98058656+95616344+93277776+88769440+73663032+43008892+6506462
3853.72-17275352-20337296-9716471+7445913+29840514+54292680+74292512+86920536
3848.58+94290152+98742512+101128440+102412352+102987192+101445200+96770376
3844.08+90787224+86752968+85947912+86413280+85327720+82414552+79225024+74274520
3838.93+63088136+46624596+35354988+38232032+50584732+61170340+66744176+72117376
3833.79+79440040+84687488+84551136+81457744+80570832+84204704+90262928+95196424
3828.65+97155784+96306920+93676784+90938656+90169672+92092656+95084232+96763448
3823.51+95108520+87849560+74082816+58162724+48680192+50736288+61574520+74846384
3818.36+84617088+85028176+72839824+53637724+41080384+44748692+60795176+78344248
3813.22+90692424+97543568+100938960+102397400+102835176+102877120+102018880
3808.72+97564480+86502408+70739472+59059232+59640924+70780400+83505544+91303824
3803.58+92064264+83719560+65595660+44825196+34663624+41954188+60290644+78262592
3798.44+89212784+92358376+90141752+86785296+86361208+89839320+94849272+98811304
3793.29+101114424+102424848+103407496+104332536+104891144+104434488+103019408
3788.79+101748896+101476784+101844592+102034144+101668296+100741648+99592688
3784.29+99000160+99447664+100502280+101439344+101627312+99943120+95529640
3779.79+89954800+86789264+87990848+92185376+96909240+100771688+103325784
3775.30+104635352+105177832+105284456+104935888+104219464+102723272+98658640
3770.80+90740904+81393248+76065376+78112240+85278128+91795520+93412456+90614192
3765.65+87550160+87716408+90953688+94870480+97870944+99650272+99659656+96678568
3760.51+90588872+84177008+81663168+84153752+88050456+89635352+89425304+90230096
3755.37+92893872+95084848+91823296+77743360+53979016+32505108+25178408+27718496
3750.23+26409410+19337654+18688882+32075816+52705860+68758432+70950856+53536468
3745.08+20715642-7647175-9911520+13641184+43823616+66002844+78551400+85278584
3739.94+89139352+91190288+90219064+84029672+73089928+61201716+52098448+47927952
3734.80+50111704+57283188+63388396+63043836+58760116+58712864+66839892+79048360
3729.65+89492296+95932704+98443640+97050272+92604336+87838528+85675688+86896656
3724.51+89882408+91978320+91371504+88843784+87449512+89225208+92689984+94921648
3719.37+95197040+95071632+95892888+97788328+100170248+101911000+101992224
3714.87+100471184+97065048+89211248+75304024+60377776+53574856+57465584
3710.37+65127504+70127176+73540688+79119816+86755576+93678304+98448880
3705.87+101253232+102625520+103189312+102893616+100311472+94571768+87931696
3701.37+84591224+86659232+92409656+98452256+102585144+104548968+105038952
3696.87+104766944+104307080+103927344+103363080+102478784+101619608+100042136
3692.37+95432952+87496088+80034464+75326736+68793096+55561200+41009556+37688972
3687.23+50136156+69707304+85905656+95448176+100137920+102112896+102824072
3682.73+103366640+103941992+103856552+102347304+99294472+95809400+93776768
3678.23+92918136+88445256+74681760+52645128+32493568+25960100+36182964+56320448
3673.09+75647992+84784056+79496696+64223948+50292360+46507196+52339224+62624248
3667.94+74525072+86754656+96840344+102980256+106014008+107553424+108243312
3663.44+108550168+108949784+109159648+108887200+108630976+108648136+108603936
3658.94+108503040+107518992+102672552+92568088+82039056+78697808+84492368
3654.44+94450072+102770904+106237680+103510960+94932104+82484576+68492648
3649.94+55521572+47366788+46948940+52880816+61276304+70551680+81456368+93375912
3644.80+103733952+110673048+114252336+115473480+115573736+115762632+116542696
3640.30+117443344+117786072+117415880+116709800+116353280+117031968+118753096
3635.80+120360696+120228888+117887192+114957704+113947720+115610152+117424432
3631.30+114781584+104053040+85836448+66471160+55359592+58204512+72418728
3626.80+90204008+105127384+115055768+120855536+124189240+126245400+127424200
3622.30+127467016+125563248+120707552+113040912+105086488+100402336+100546344
3617.80+104427088+110300976+116568104+121231664+122919184+122206088+120316288
3613.30+117637808+115296064+115894200+119632352+121973672+118801344+112220784
3608.80+108170544+109415760+113980232+119440208+125300016+131424440+136749968
3604.30+140122640+141376176+141233216+140500768+139604240+138838768+138563024
3599.80+138799200+139240944+139917808+140999632+141788304+141208944+139522240
3595.30+138193024+138074496+139020224+140880816+143477328+146201760+148521664
3590.81+149821552+148503296+143390352+136343664+131064392+129065304+129376928
3586.31+131772856+136939568+143753472+149592640+153344816+155868272+157842256
3581.81+158993440+159194640+159080016+159495408+160603328+161599840+161695632
3577.31+161344272+161654128+162720224+163680128+164249104+164970272+166131712
3572.81+167423920+168435040+168896672+168699888+167741200+165409104+160962352
3568.31+155078736+150041024+147648752+148094272+151139392+156462400+162518880
3563.81+167170768+169953984+172061424+174035344+175232960+175554400+176012720
3559.31+177338704+179125840+180661072+181875712+183179184+184622736+185644544
3554.81+185748016+185031440+183838656+182482320+181626672+182153152+184097968
3550.31+186419824+188146848+189004768+188913776+187894112+186576688+185936720
3545.81+186361120+187488128+188852816+190312112+192012288+194157136+196648144
3541.31+199025344+200898944+202212608+203002192+203293840+203292704+203307328
3536.81+203557600+204258480+205556288+207168848+208540848+209483088+210191424
3532.31+210732864+211079216+211371664+211587664+211330928+210466896+209543232
3527.81+209184560+209533440+210475584+211846832+213308928+214524672+215480960
3523.31+216350960+217182352+217946688+218721088+219706128+221165936+223160560
3518.81+225175360+226413792+226726416+226827024+227374192+228345632+229491248
3514.31+230781664+232171984+233384480+234157744+234387408+234000400+233093344
3509.81+232301104+232596064+234376848+236941824+239136592+240428592+241101840
3505.31+241564800+241882048+242030768+242212560+242703264+243520704+244398496
3500.81+245150976+246043376+247500784+249308464+250545920+250785776+250850912
3496.31+251728000+253187440+254302096+254933568+255785856+257163680+258563952
3491.81+259548176+260330448+261268864+262194688+262642528+262630528+262799744
3487.31+263575568+264646064+265630768+266728320+268089168+269104736+269146944
3482.81+268665792+268742112+269774912+271245984+272548576+273527168+274409824
3478.31+275490944+276725120+277578656+277619712+277252832+277412416+278483936
3473.81+279883360+280773760+280992384+281200608+282205152+284129696+286281472
3469.31+287838624+288557408+288781696+288978112+289386592+289978336+290632704
3464.81+291309376+291985952+292510912+292768032+292955584+293431136+294275776
3460.31+295257792+296159232+296853696+297255840+297461088+297745248+298266240
3455.81+299004256+300037888+301423328+302751008+303391232+303271552+302935168
3451.31+302887040+303369024+304498240+305933728+306710144+306187520+305022208
3446.81+304558304+305428992+307209760+309132352+310655648+311646016+312370784
3442.31+313157920+313998368+314729856+315449056+316332512+317289152+318133568
3437.81+318834752+319277952+319286720+319150144+319618944+321011488+322713344
3433.31+323825312+324035328+323724576+323467424+323490336+323665248+323996928
3428.81+324761312+325893440+326763872+326997728+326926688+326852288+326643552
3424.31+326476576+326955872+327974048+328475264+327957504+327279712+327449152
3419.81+328478144+329829696+331242016+332627232+333729792+334322720+334474208
3415.31+334468544+334540320+334776800+335218432+335928384+336805920+337409984
3410.81+337313728+336732576+336445120+336957760+338001184+338981536+339644224
3406.32+340121184+340500352+340697664+340721120+340772960+340957760+341185376
3401.82+341506944+342193568+343248416+344208896+344624352+344381216+343518848
3397.32+342253312+341280544+341375744+342482368+343691424+344284832+344431680
3392.82+344767296+345601376+346692544+347592736+348004352+347834848+347241440
3388.32+346768544+347015040+347839616+348318016+347895968+347119296+346842016
3383.82+347291136+348228832+349354848+350240192+350533024+350441536+350534048
3379.32+351058048+351789760+352323840+352326016+351885888+351649344+352083264
3374.82+352836768+353421824+354011328+354909920+355887936+356728640+357612320
3370.32+358382752+358374720+357498944+356581120+356204800+356056960+355657824
3365.82+355120160+355007360+355723904+356952704+357780448+357763360+357560224
3361.32+357926720+358566144+358716384+358272512+357591680+356867456+356374016
3356.82+356616256+357582496+358491072+358771008+358706080+358822816+359242272
3352.32+359874816+360726304+361753120+362715840+363316416+363401344+363045024
3347.82+362563616+362336384+362537824+363013760+363423264+363505472+363266784
3343.32+362988576+363024704+363554080+364452896+365374720+366018272+366359712
3338.82+366533056+366470656+365944704+365089536+364561376+364772256+365263136
3334.32+365339424+365139264+365414816+366327488+367214816+367608608+367746528
3329.82+367968832+368353440+369009088+370000192+370871680+370995200+370415040
3325.32+369744960+369311008+369019232+368939456+369375392+370375552+371587456
3320.82+372573216+373101760+373216768+373087840+372807520+372426304+372105824
3316.32+371931584+371725600+371416192+371363936+371866976+372711072+373565760
3311.82+374320288+374759968+374616320+374173312+374058368+374333408+374652096
3307.32+375186944+376409440+378047424+379185536+379217568+378117696+376279616
3302.82+374631968+374203040+374979968+375908224+376287584+376378976+376523872
3298.32+376600800+376554016+376630464+376912448+377166912+377205280+377021952
3293.82+376746304+376712256+377266944+378284128+379151104+379411680+379176192
3289.32+378826656+378593152+378443424+378249472+378000416+377841248+377820608
3284.82+377722432+377296064+376547968+375667328+374880000+374461152+374563520
3280.32+374935904+375143392+375104352+375004576+374781088+374211840+373467264
3275.82+372990496+372835360+372661248+372253760+371603936+370758336+370047296
3271.32+369948352+370214464+369816288+368395840+367047776+366865312+367385088
3266.82+367312096+366226752+364744320+363433568+362438560+361865888+361814720
3262.32+361996128+361814432+360957024+359733248+358721824+358060512+357261472
3257.82+355877696+354216896+353082176+352870528+353228960+353563392+353584000
3253.32+353314944+352825728+352100672+351117184+350013376+349084128+348547424
3248.82+348326848+348108832+347587488+346696768+345701344+345040576+344960864
3244.32+345284480+345611072+345675296+345406720+344725792+343504704+341819264
3239.82+340126272+338979808+338485312+338189344+337612608+336749536+335964288
3235.32+335623584+335881504+336526944+336971616+336673952+335689120+334509376
3230.82+333457728+332568352+331907360+331598848+331596864+331731072+331819680
3226.32+331609312+330890656+329767552+328575904+327532160+326716288+326183232
3221.83+325781632+325167488+324324544+323674368+323409984+323228160+322944480
3217.33+322779200+322791008+322617696+322050944+321366016+320864352+320481504
3212.83+320059072+319595200+319055744+318248192+317158560+316245120+316022848
3208.33+316341696+316444576+315890656+315015104+314277024+313604320+312761568
3203.83+311935808+311492416+311394976+311215200+310620096+309692832+308897664
3199.33+308696544+309050112+309369600+309070880+308062816+306707616+305544096
3194.83+304958336+304815488+304500448+303652160+302658464+302093728+301940736
3190.33+301800096+301614016+301633088+301743296+301370368+300219328+298784352
3185.83+297878144+297760928+297995040+298077792+297894336+297481600+296719392
3181.33+295553504+294351040+293679168+293620736+293592096+293032960+292112704
3176.83+291417184+291112800+290879808+290566208+290355008+290278400+290111808
3172.33+289732448+289128320+288226816+287139776+286304384+285952192+285800992
3167.83+285552704+285271136+285067552+284872608+284577856+284043456+283152736
3163.33+282229664+281937536+282389408+282900256+282885792+282374016+281544192
3158.83+280546848+279695296+279064480+278223360+277060000+276319392+276541248
3154.33+277127808+277212480+276757376+276240704+275913888+275746432+275501696
3149.83+274817696+273702720+272754912+272413568+272367648+272162976+271846624
3145.33+271641856+271516896+271393824+271292192+271087104+270549504+269715520
3140.83+268954048+268634816+268825024+269170336+269073248+268153744+266593792
3136.33+264964656+263821344+263439088+263690240+264060208+263952960+263095520
3131.83+261742016+260538912+260089792+260432096+260976224+261067584+260473200
3127.33+259404832+258373040+257941072+258164432+258381264+257964880+257047536
3122.83+256122000+255340896+254711984+254476464+254772112+255275008+255531072
3118.33+255340400+254710000+253816272+253033632+252645872+252600288+252718560
3113.83+252899664+252941280+252538592+251679392+250721824+249959120+249385648
3109.33+248930896+248647872+248557968+248471312+248079472+247291744+246427376
3104.83+245926608+245885760+246001072+245933280+245624976+245311808+245301840
3100.33+245620400+245926432+245905552+245570912+245032960+244334512+243696784
3095.83+243453008+243457088+243079440+242053104+240883600+240242048+240308832
3091.33+240736784+240994928+240898432+240887840+241425088+242152224+242251712
3086.83+241531040+240528336+239727216+239334128+239471136+239902816+239948608
3082.33+239240000+238187424+237320160+236682592+236186224+235961264+236068144
3077.83+236301088+236452880+236487856+236423920+236298640+236161840+235940448
3073.33+235429120+234557760+233599312+232950544+232756096+232807232+232818448
3068.83+232693536+232446336+232071952+231633968+231249040+230848224+230284528
3064.33+229738832+229569280+229712384+229772736+229646352+229440640+229001840
3059.83+228247056+227642144+227570000+227595616+227145664+226501296+226356288
3055.33+226733664+226977568+226619456+225773552+224840000+224093776+223609312
3050.83+223458640+223727952+224153184+224094240+223267664+222153248+221337664
3046.33+220900944+220772576+221093360+221813936+222501536+222822368+222761040
3041.83+222291056+221366288+220238336+219310128+218708000+218300672+217966544
3037.34+217616960+217229488+216996864+217190736+217733696+218137056+217937984
3032.84+217158928+216334016+216058080+216438912+217052400+217424976+217351536
3028.34+216781408+215828464+214901584+214422768+214363248+214385696+214375216
3023.84+214502592+214841904+215173184+215144944+214608688+213861840+213439008
3019.34+213541216+213933744+214445200+215055600+215473728+215350464+215004464
3014.84+215107392+215544688+215473872+214667728+213895856+213764960+213962928
3010.34+213903584+213526672+213206256+213182896+213252032+213017536+212476736
3005.84+212168672+212480784+213045728+213221584+212925184+212580528+212471264
3001.34+212553280+212733600+212994816+213319728+213707568+214182496+214704656
2996.84+215175120+215515312+215701008+215764416+215809280+215919152+216071792
2992.34+216229600+216449088+216788640+217228192+217724832+218241568+218746128
2987.84+219267280+219823136+220254320+220409664+220583920+221310160+222561568
2983.34+223639408+224021232+223922832+223923664+224457376+225632112+227118416
2978.84+228287296+228835584+229171344+229877392+230970784+232013648+232746496
2974.34+233377536+234299616+235672416+237247088+238589728+239474720+240015568
2969.84+240509584+241288336+242533520+244032736+245301040+246146912+246901280
2965.34+247880224+248931568+249718992+250176192+250440224+250606976+250799856
2960.84+251226832+251942960+252672048+253078496+253139936+253067872+252930960
2956.34+252568880+251917568+251163488+250497504+249915568+249320752+248671744
2951.84+247952320+247208432+246577632+246151808+245872048+245712176+245753344
2947.34+245915344+245876960+245506928+245157856+245277664+245876800+246600208
2942.84+247190624+247678208+248152208+248544704+248729616+248807632+249112880
2938.34+249855744+250902960+251993360+252960112+253663600+254013744+254217216
2933.84+254657392+255327632+255811440+256053616+256605776+257683456+258533744
2929.34+258405552+257721840+257562688+258219584+259040496+259523888+259809280
2924.84+260108352+260285936+260068624+259335520+258256672+257277040+256700096
2920.34+256229056+255328928+254056160+252964864+252220416+251454960+250480960
2915.84+249518944+248680256+247770592+246644448+245380704+244099152+242817776
2911.34+241441056+239891744+238312800+236992224+235948608+234866528+233630512
2906.84+232560656+231902592+231417200+230727792+229780048+228724624+227647808
2902.34+226682480+226161040+226276240+226596736+226337808+225337168+224417728
2897.84+224404448+225037568+225308672+224691984+223633424+222890160+222676736
2893.34+222444768+221491616+219847040+218332960+217583056+217452576+217612752
2888.84+218057472+218663120+218991344+218895888+218651616+218299520+217640368
2884.34+216908416+216587376+216601904+216521360+216386784+216540416+216930352
2879.84+217273056+217561904+217852544+217987856+217902736+217807968+217827664
2875.34+217880496+217962016+218125584+218264976+218264656+218183904+218002048
2870.84+217478912+216543824+215536304+214810624+214282160+213548448+212412128
2866.34+211189536+210389120+210118032+210040592+209930976+209855680+209726896
2861.84+209254416+208584464+208349408+208773008+209275344+209311680+209049264
2857.34+208924864+209031232+209228176+209467136+209708688+209813808+209740592
2852.85+209641920+209631312+209645296+209634992+209680864+209733824+209423872
2848.35+208406224+206833168+205250832+204068832+203281488+202588416+201622480
2843.85+200203168+198592544+197340208+196712048+196430112+196084992+195561648
2839.35+194958064+194324880+193609552+192741104+191760944+190892336+190328864
2834.85+189948832+189527680+189208416+189336592+189808816+190056304+189734256
2830.35+189021664+188221344+187469456+186847136+186421712+186129472+185846176
2825.85+185578384+185436080+185423632+185363888+185081968+184660496+184411952
2821.35+184469648+184539408+184258560+183693088+183202624+182905488+182604896
2816.85+182202160+181890976+181887504+182120688+182240208+181944960+181338336
2812.35+180862944+180811712+181024896+181136432+180922432+180332928+179492320
2807.85+178776944+178602096+178976272+179494240+179776464+179711760+179325392
2803.35+178746576+178241488+177960064+177733648+177396832+177136304+177227328
2798.85+177597152+177930208+177976768+177552352+176572624+175395168+174714608
2794.35+174789808+175148032+175326272+175437072+175698192+175940160+175947456
2789.85+175807120+175588192+175122944+174418656+173843696+173676496+173822288
2785.35+174092928+174366000+174412160+174011696+173332144+172845776+172761408
2780.85+172839744+172771216+172507856+172143232+171714464+171256736+170954736
2776.35+171021424+171375456+171619024+171493200+171197472+171069920+171117936
2771.85+171119680+171074656+171198736+171480992+171561824+171192560+170606608
2767.35+170237840+170187008+170170688+169989616+169782144+169719424+169726224
2762.85+169665904+169594464+169641984+169804960+169988512+170092416+170021152
2758.35+169822064+169751088+169981536+170302304+170397504+170265232+170076912
2753.85+169819520+169399216+168938624+168684368+168758448+169158240+169780544
2749.35+170289936+170290112+169833920+169489952+169702000+170268096+170629456
2744.85+170525504+170181920+169918512+169777088+169609520+169416480+169392880
2740.35+169613792+169908384+170108736+170246528+170399888+170506336+170459120
2735.85+170280432+170120128+170136128+170410960+170885952+171364832+171682928
2731.35+171887072+172168448+172560048+172830528+172758400+172449824+172235808
2726.85+172295568+172557312+172958528+173564368+174346160+175080576+175609136
2722.35+176011296+176393344+176690304+176836752+176973648+177314208+177890480
2717.85+178595424+179360048+180121088+180694816+180958240+181135632+181599776
2713.35+182359760+183065504+183585104+184161696+184929136+185710208+186420752
2708.85+187266576+188410736+189767776+191151744+192319296+193035072+193404400
2704.35+193891312+194732976+195702768+196674080+197863600+199222304+200278192
2699.85+200941584+201821264+203400576+205407488+207283312+208823024+210159248
2695.35+211448832+212715552+213879904+214953968+216144880+217562704+218946112
2690.85+220049568+221141664+222677072+224614768+226523824+228211072+229836512
2686.35+231538016+233293024+235085200+236920640+238762848+240574096+242311856
2681.85+243856336+245151344+246452672+248201616+250503376+252904240+254845056
2677.35+256233504+257441600+258842480+260539712+262471840+264536480+266617488
2672.85+268655232+270689088+272688544+274451296+275855872+277156096+278817216
2668.36+281052192+283641152+286193824+288459392+290354720+291865504+293127840
2663.86+294541888+296506688+298941664+301322752+303335744+305200160+307196864
2659.36+309219648+311027488+312669152+314425952+316455456+318642688+320733920
2654.86+322602368+324381856+326244608+328137824+329921280+331695904+333697952
2650.36+335990240+338472768+341026656+343421824+345391584+347040352+348839904
2645.86+350984608+353100736+354840992+356422816+358329760+360681184+363075392
2641.36+365032992+366589632+368341984+370779776+373696096+376474496+378805568
2636.86+380849184+382861984+384947744+387033248+388942272+390657440+392465824
2632.36+394594752+396836576+398927520+401057952+403588704+406443328+409212256
2627.86+411650272+413755520+415620320+417477632+419582912+421849728+423913440
2623.36+425684576+427491424+429585728+431827872+433963296+435952704+437981120
2618.86+440225568+442647936+444990784+447058624+448974656+451030560+453333376
2614.36+455752992+458161920+460564480+463013600+465513952+467959552+470138688
2609.86+471938208+473592000+475557568+478009664+480621056+482974688+485068256
2605.36+487195936+489439808+491570848+493477152+495415904+497683840+500196864
2600.86+502572544+504561920+506277888+508017568+509919296+511865344+513700992
2596.36+515464608+517332032+519398016+521606752+523835168+525952992+527869152
2591.86+529622176+531378144+533259776+535230784+537127104+538806912+540340416
2587.36+542098624+544421952+547101376+549446400+551038144+552186240+553512640
2582.86+555326208+557486848+559617472+561424320+562953024+564484800+566060800
2578.36+567418880+568563712+569979904+571957888+574174272+576244992+578231808
2573.86+580278272+582206208+583834496+585308416+586835136+588374464+589779648
2569.36+591011264+592133248+593289024+594639488+596164480+597635584+598908608
2564.86+600090432+601351872+602779008+604418176+606205568+607879936+609208640
2560.36+610316416+611552000+613084992+614775552+616374144+617728704+618890752
2555.86+620085248+621452288+622851264+624061952+625099648+626150912+627282240
2551.36+628409024+629489024+630613952+631911488+633413952+634986048+636408832
2546.86+637546688+638381248+638933120+639341952+639972608+641137792+642714048
2542.36+644297216+645694336+647010112+648332352+649624448+650798656+651696064
2537.86+652201792+652587264+653417600+654853248+656358784+657367104+657961344
2533.36+658632064+659627328+660809472+661974784+663056128+664072640+665086400
2528.86+666183808+667379456+668565376+669638976+670641664+671628160+672485952
2524.36+673116736+673725504+674629312+675812864+676964992+677944320+678876032
2519.86+679845504+680809536+681712896+682426432+682795776+683035328+683737792
2515.36+685154816+686785152+688019008+688830272+689566144+690416576+691386816
2510.86+692459008+693540288+694476672+695264576+696083008+697054912+698106304
2506.36+699048896+699723328+700133120+700454592+700897216+701608512+702686656
2501.86+704085440+705474176+706478848+707113408+707705856+708412416+709122688
2497.36+709793472+710514368+711280704+712017536+712727552+713386880+713881728
2492.86+714279360+714880192+715753152+716532992+716948672+717238144+717733952
2488.36+718349120+718832768+719287040+719994432+720860672+721475712+721720640
2483.87+721889984+722136960+722234624+722083520+722052416+722492352+723219072
2479.37+723815424+724201088+724564992+724926400+725118784+725087232+724922048
2474.87+724652352+724259520+723860544+723688064+723810560+724010944+724043264
2470.37+723945984+723928448+723951104+723706688+723102464+722461184+722080512
2465.87+721869184+721621440+721308992+720942464+720501376+720173888+720266368
2461.37+720652992+720762752+720310528+719612928+718999424+718362240+717554432
2456.87+716767552+716213056+715761408+715177216+714482368+713906368+713634688
2452.37+713654272+713670208+713254144+712348352+711502912+711248640+711344704
2447.87+711091072+710310848+709524352+709146432+709006016+708786112+708470208
2443.37+708165440+707826880+707395520+706998208+706785472+706698560+706570560
2438.87+706384192+706265344+706247296+706194624+706003712+705741312+705520512
2434.37+705351168+705203776+705131008+705199104+705324224+705288256+704952960
2429.87+704473152+704228672+704419008+704784256+704920320+704839040+704923328
2425.37+705333056+705810496+706113984+706243328+706166464+705758592+705160320
2420.87+704807040+704936320+705335872+705684352+705865152+705889664+705792256
2416.37+705674112+705646912+705654144+705513408+705201408+704950912+704991744
2411.87+705250048+705393408+705192768+704779776+704475968+704402304+704383744
2407.37+704204864+703814144+703292544+702793664+702508288+702488960+702482304
2402.87+702118208+701308864+700338880+699563840+699114432+698845952+698446528
2398.37+697668160+696569344+695476416+694616448+693931264+693279168+692663040
2393.87+692141504+691659392+691089280+690382976+689601280+688812224+688006336
2389.37+687138432+686251328+685470336+684801792+684031616+682949120+681621952
2384.87+680305024+679137792+678046528+676892928+675634496+674340928+673077504
2380.37+671806208+670455552+669067392+667727680+666345728+664703616+662783936
2375.87+660830080+659013632+657209792+655177664+652815616+650203520+647500992
2371.37+644848000+642308032+639892800+637652736+635668288+633894464+632080192
2366.87+629951424+627500160+625024512+622850688+621039360+619428160+617866240
2362.37+616304192+614742016+613247872+611982016+611036608+610278976+609494400
2357.87+608642304+607862336+607294976+607016704+607074688+607475840+608167424
2353.37+609040640+609907520+610527360+610801088+610905152+611033536+611007296
2348.87+610342720+608784256+606571392+604074176+601368064+598376192+595277248
2344.37+592476544+590181504+588270784+586573696+585071744+583717952+582274624
2339.87+580467392+578254720+575861888+573556032+571450816+569512256+567682112
2335.37+565941760+564321792+562924480+561824320+560863872+559700480+558202816
2330.87+556654912+555418176+554526208+553726336+552764608+551552704+550229056
2326.37+549113856+548400384+547915136+547350656+546623104+545800704+544839040
2321.87+543684800+542495744+541449344+540429056+539177280+537696896+536296256
2317.37+535245312+534500000+533740000+532639744+531156384+529579872+528250848
2312.87+527226272+526285920+525216480+523992096+522686528+521337216+519928288
2308.37+518457184+516998656+515687424+514557408+513406624+511967456+510275776
2303.88+508679776+507435712+506444576+505459232+504307648+502854912+501041920
2299.38+499070976+497327616+496001280+494958528+493978368+492920288+491684736
2294.88+490217408+488580384+486870752+485125856+483371264+481675008+480076128
2290.38+478562176+477143104+475847552+474640256+473464032+472331424+471236864
2285.88+470054496+468668896+467185088+465816416+464574208+463249056+461750848
2281.38+460250208+458884512+457523200+455984960+454332512+452765696+451350080
2276.88+450007648+448651936+447253600+445906624+444818592+444029216+443183168
2272.38+441870592+440160224+438493600+437117344+435927168+434777376+433641344
2267.88+432515328+431378720+430216800+429000736+427707936+426391392+425094368
2263.38+423753376+422326912+420944032+419753024+418691936+417579296+416357152
2258.88+415109952+413922976+412825056+411796256+410746400+409541248+408142944
2254.38+406672096+405291968+404062080+402964384+401958112+400942656+399768864
2249.88+398416384+397070816+395928352+394995136+394177248+393403776+392572704
2245.38+391540160+390289760+388998976+387865568+386943680+386101472+385107552
2240.88+383876256+382649184+381671840+380751680+379507648+378016064+376735104
2236.38+375817056+374995584+374083136+373098176+372005440+370796608+369691584
2231.88+368854144+368099552+367223712+366364928+365729088+365185696+364434944
2227.38+363410752+362330720+361435040+360748736+360048736+359101248+357958624
2222.88+356915968+356148448+355531616+354853664+354045952+353150496+352180768
2218.38+351146656+350141600+349299168+348643264+348041632+347328864+346447424
2213.88+345501216+344680288+344056512+343440864+342578496+341515968+340569056
2209.38+339876256+339226368+338393440+337399808+336414272+335580416+334895648
2204.88+334176160+333296512+332467072+331948800+331546464+330872576+330047808
2200.38+329528704+329306752+328873600+327960736+326778048+325648192+324801440
2195.88+324312224+323956768+323395328+322642272+321996704+321523072+321019904
2191.38+320411456+319727616+318858144+317732032+316570720+315703680+315264544
2186.88+315141216+315010432+314493280+313532640+312472192+311588544+310827584
2182.38+310159520+309760320+309661984+309587552+309293888+308786464+308168128
2177.88+307522304+306899264+306283104+305630048+304990304+304452480+304013088
2173.38+303602336+303133856+302439232+301423616+300355040+299645824+299293216
2168.88+298902496+298298784+297722912+297387392+297220864+297082144+296931424
2164.38+296712224+296306048+295673280+294941120+294283232+293732448+293147648
2159.88+292436160+291732416+291231552+290885472+290442496+289775360+289025632
2155.38+288434784+288143360+288091424+288060352+287856896+287479872+287025888
2150.88+286490784+285845280+285231168+284820352+284519808+284063360+283417344
2146.38+282849888+282562304+282467488+282349312+282070240+281585920+280926784
2141.88+280212864+279567680+278989312+278393920+277790400+277305920+277038176
2137.38+276957792+276938784+276803168+276386688+275668256+274856384+274236192
2132.88+273902208+273691808+273409056+273035584+272644800+272220256+271696448
2128.38+271145856+270755200+270590240+270531872+270441792+270274432+270014208
2123.88+269617952+269068800+268429472+267823088+267372512+267103808+266898768
2119.39+266606128+266192160+265747472+265353584+265021104+264761088+264630448
2114.89+264650528+264688048+264525296+264088640+263549920+263092064+262726192
2110.39+262432080+262298928+262310608+262178576+261681712+261038368+260657504
2105.89+260611024+260589824+260305280+259728480+259025552+258413744+258021504
2101.39+257771088+257464912+257030304+256609888+256378480+256313536+256213968
2096.89+255934240+255577776+255359424+255286640+255127152+254782432+254443024
2092.39+254252128+254028640+253544848+252907696+252434592+252252864+252183744
2087.89+251989760+251625040+251293280+251249744+251467904+251559408+251198176
2083.39+250555728+250090128+249912144+249665664+249134160+248659008+248690880
2078.89+249104208+249281152+248847504+248065104+247453536+247213824+247087056
2074.39+246704576+246032896+245454656+245324240+245498256+245544816+245361936
2069.89+245220688+245202112+245057280+244717744+244419520+244186144+243693344
2065.39+242868528+242143280+241868048+241861024+241775728+241563808+241391184
2060.89+241336592+241343072+241328416+241262560+241176656+241108368+241024912
2056.39+240875920+240648256+240319280+239881632+239519664+239507936+239792688
2051.89+239890256+239423248+238542672+237679376+237134144+236998112+237185744
2047.39+237426288+237469232+237340976+237170608+236855056+236192400+235258848
2042.89+234346448+233633744+233198768+233165296+233550560+234109952+234534688
2038.39+234653200+234370992+233741808+233145008+232996016+233174256+233121760
2033.89+232575616+231857424+231396256+231302592+231411712+231465760+231279360
2029.39+230930656+230718048+230767536+230843808+230678928+230280320+229811344
2024.89+229390672+229130960+229161440+229462528+229771120+229756528+229283280
2020.39+228522256+227785952+227202528+226599168+225820848+225105744+224910768
2015.89+225331968+225891008+226028848+225698368+225327760+225263312+225408928
2011.39+225451824+225260560+224931648+224579456+224258240+224053456+224049728
2006.89+224190576+224265376+224083408+223645904+223152432+222844176+222837408
2002.39+223069296+223347296+223420768+223114096+222502496+221919040+221628928
1997.89+221552112+221438224+221216224+221012656+220874288+220624144+219932368
1993.39+218540848+216651952+215124960+214864960+215829440+217004944+217528144
1988.89+217452576+217319248+217460960+217894992+218477536+218943056+219064864
1984.39+218877616+218549392+218171936+217888880+217919056+218155936+218103792
1979.89+217552208+216955552+216822384+217062240+217234672+217148608+216967328
1975.39+216898720+216979584+217118576+217268384+217436928+217475840+217098400
1970.89+216300608+215485792+214881888+214139792+212908608+211537888+210821248
1966.39+211174384+212308544+213559728+214363424+214528208+214206064+213663392
1961.89+213135328+212821568+212820272+213058976+213397920+213752352+214042720
1957.39+214150256+214000000+213583120+212936784+212224592+211717168+211568816
1952.89+211693648+211898368+211978112+211772720+211367808+211113360+211215952
1948.39+211456384+211444640+210949936+210068592+209285952+209068864+208967824
1943.89+207713952+204946880+202345472+202077824+204328528+207208864+208921648
1939.39+209270176+209148192+209235728+209457824+209487888+209391680+209523648
1934.90+209932288+210237488+210121568+209682944+209258736+209077888+209097184
1930.40+209059216+208741632+208213344+207775552+207644160+207767648+207978176
1925.90+208178288+208136944+207230592+205006016+202251104+200766960+201531856
1921.40+203718480+205775440+206337904+204048448+198657072+193064480+191840496
1916.90+196100832+201996144+205513200+206400736+206498944+206700048+206892144
1912.40+206986848+206736240+205759360+204409952+203603360+203627616+204026464
1907.90+204523488+205172112+205793440+206033360+205890496+205715968+205745232
1903.40+205891952+205994928+206106480+206355568+206608912+206589296+206313152
1898.90+206029344+205801120+205565584+205315264+204836704+203856080+202893040
1894.40+203044080+204394544+205731072+206176864+205777664+204289648+201265088
1889.90+197814608+196432976+198212992+201579024+204337984+205719664+206099408
1885.40+205927456+205490560+205116832+205095632+205481728+206090400+206680128
1880.90+207070768+207112592+206764528+206293552+206122864+206386608+206882176
1876.40+207407472+207817520+207938640+207785824+207606848+207516320+207440256
1871.90+207161296+205650096+201162608+193671616+186700912+184588352+187886128
1867.40+193371456+198167968+201743152+204425648+206171888+207033152+207491232
1862.90+207931552+208342960+208578976+208650576+208702384+208799056+208893520
1858.40+209048448+209399888+209813344+210008560+210034960+210130416+210305408
1853.90+210565712+211090176+211684768+211796064+211442224+211205008+211112256
1849.40+210557520+209300272+207856576+207138128+207329456+205779584+197718032
1844.90+182872688+170347616+170986576+184061504+198450256+206436608+209255376
1840.40+210706608+211849088+212248608+211771440+210450944+208980848+208714448
1835.90+209858896+211092896+211498592+211269072+210815776+210397184+209373808
1831.40+205397040+197194960+188650112+186335280+191978432+200940960+207809328
1826.90+209662688+205830864+198977264+194904640+197182784+203202032+208235216
1822.40+210835296+212183680+213023504+213362464+213321024+212885728+211980688
1817.90+211086768+210851360+211329968+212209120+213172256+213743840+213546512
1813.40+212723744+211425456+209303648+206434352+204256896+204484464+207030432
1808.90+209858544+211219168+211458176+212002272+213096000+213754960+213635360
1804.40+213129888+211743904+208570928+204503424+201593776+200061600+198492224
1799.90+197086400+197985008+201914320+206685600+209507376+209574160+208481008
1795.40+208226208+207716704+202220944+189234592+174540352+168361760+174181616
1790.90+185857520+196431072+204038320+209084640+211488464+211970864+211745680
1786.40+210040432+205609632+200747872+199804304+203471216+208057472+210056704
1781.90+208596672+204829792+201530080+201550304+204717840+208156400+210104672
1777.40+210564784+209059552+205760032+203205728+201691312+195191664+178615120
1772.90+158034064+147386784+153716624+170882304+187658496+195957728+193763856
1768.40+186490736+183865264+190527536+201255472+208403456+210402000+210220416
1763.90+208629824+202881808+192172592+181963584+180251008+188634816+200060480
1759.40+206986544+207901152+204652304+198731296+193336608+193627296+200250288
1754.90+207551216+211344448+211942672+207753840+194906560+177192208+167446704
1750.41+172360416+183802192+191311040+194076352+196771920+201234944+206200976
1745.91+210423920+212885728+212694928+210540448+209070656+210731424+214277184
1741.41+213858960+204905920+192139808+187268816+195298720+208729712+218319104
1736.91+220919056+214137536+193064192+158983488+127023312+117280992+135613904
1732.41+168208224+195887792+208873216+210017744+208526848+210612592+215511792
1727.91+219574640+221367904+221935376+222282496+222175744+221020896+219096368
1723.41+217650384+217812976+219472336+221216704+221068944+216641456+204520112
1718.91+181992992+153260336+132923384+134800640+154374464+173435392+182682112
1714.41+188601600+198791536+210881008+219252256+223011696+223554608+221923904
1709.91+220815248+222815568+225640048+224394544+218113024+210372544+205076208
1705.41+203990336+206599440+211525168+218369488+224404960+219085376+190906080
1700.91+145716576+112878696+119974448+160886112+204143376+223122672+209634192
1696.41+176385552+153770912+166776880+207345232+246627472+268552256+277326400
1691.91+281872416+284681504+285780896+287733472+292089600+297185824+302653120
1687.41+309321344+311191936+295923904+260560240+223863264+213910864+238455568
1682.91+279311264+315812160+339325760+350887168+356166144+361446336+369430144
1678.41+378488416+385365088+385932512+376180864+358929824+348234432+357754016
1673.91+383025248+405779776+415185696+415545984+414620224+412395552+406004512
1669.41+400377440+405868608+425007616+448507328+466234368+476482432+483168896
1664.91+487889920+487917792+482071360+476077600+478951776+492952512+510814304
1660.41+524736256+533740416+540783872+547314304+553232576+558438784+561527168
1655.91+558929664+545769728+516615776+470697600+423802720+409045888+445894304
1651.41+512534240+570783360+602021952+609738688+604849600+595251520+583671680
1646.91+570922432+561970624+566686144+588422848+615543616+633172352+638692864
1642.41+639390784+640054144+640186176+639777664+639242624+636177408+628798656
1637.91+618525760+603850816+579101504+547459648+527961536+536291712+563019136
1633.41+585848640+594228800+592040704+586024768+579298112+571914688+561846720
1628.91+547166272+529887488+515355680+506658816+501666784+494999200+481259488
1624.41+459316416+435910944+421407808+419020224+421890144+421887040+416817632
1619.91+409239136+400856640+387464768+361179456+323042848+292187584+290373984
1615.41+313949184+338592800+349311616+349418720+346628064+343241632+339405760
1610.91+335984480+332535872+328336672+324832288+323224960+322153664+320554688
1606.41+319442464+319095488+318117088+316140448+314245472+312826848+311658112
1601.91+311016736+310829152+310351584+309753792+309936800+310596960+310709600
1597.41+310395328+310157664+309459104+307986752+306763360+306601888+307186496
1592.91+308268768+309801376+311019424+311310656+311284512+311537376+311811392
1588.41+312327296+313810240+315771040+317158208+318323392+319921600+321206592
1583.91+321713504+322466784+323747488+324576896+325206592+326584352+327947008
1579.41+328617632+328840992+324038016+304860000+271902560+246245744+251587200
1574.91+284146944+318260640+337281856+343604928+345659136+344886240+336784608
1570.41+321172576+307454528+306943616+320308960+337441280+348896416+352189312
1565.92+349433152+344581248+342099520+344233056+349301888+352650080+346828288
1561.42+323568672+282236960+236196480+203602720+191760944+199436272+227063504
1556.92+269018816+305463968+317850880+307921824+295470016+297647040+313319808
1552.42+329421664+335819552+331729056+323576064+318926592+320613408+325856352
1547.92+330197504+330318784+323849088+310763264+296739040+289936928+289799776
1543.42+284961216+268281168+247528368+233215664+221212656+201646560+182021344
1538.92+184894080+217551104+260357040+291144928+303818816+302795648+292200928
1534.42+275482336+260693648+257725936+267827504+281927104+291637248+295978080
1529.92+296435552+292540512+285491808+279701920+276351648+271138272+262544048
1525.42+256596608+258727264+264682944+263826432+249248960+223915232+200466608
1520.92+194198864+210607568+238730448+259883696+263182192+253524864+245681648
1516.42+248941360+259730288+270454976+277789536+280133536+275964320+268547776
1511.92+264971088+266788112+268108096+264427904+255801264+241024096+216801712
1507.42+185278928+158166176+150440160+168754816+205093872+242466640+267496048
1502.92+277760640+279306624+279244544+279682048+277194944+269144800+260064192
1498.42+256706992+256221360+249154272+236948976+234802928+250612848+272909472
1493.92+287702080+293412320+294160384+289784640+279156320+267252400+262288240
1489.42+266939776+275889408+282280704+284975456+288638816+296715712+306686848
1484.92+314138016+318444608+321654240+324371584+325923136+327117568+329858784
1480.42+334552704+339948352+345025408+348872032+349317760+345101408+340022816
1475.92+340496416+346278560+348544576+340861856+328036192+321405376+328167328
1471.42+347309824+372070624+393713664+406712864+412441472+416023808+419642272
1466.92+420720800+415764800+405202976+396103360+398038144+412096224+428126176
1462.42+437239936+440615424+442305184+441080352+434603264+423642752+406819840
1457.92+380758816+352641376+342953216+363529312+400871232+432959904+450602592
1453.42+457165376+458410272+457807232+457528192+458708640+460101216+458591904
1448.92+452636288+445238304+442152832+445969824+453233792+458626624+460345504
1444.42+460196128+459976416+459729344+459212288+458950112+458947840+458175968
1439.92+456405440+453802560+446794016+429073312+402093088+381254112+382230944
1435.42+401067008+419429504+426499808+425319392+422232640+418801184+413770880
1430.92+406708864+398799328+392976256+391874592+393933312+394690976+392664384
1426.42+389716032+385859712+379167456+370864000+365049120+363421568+364391424
1421.92+365079328+360021696+343009440+316794720+296958240+297127616+312540672
1417.42+327957824+335924736+339133120+341161760+342314624+342312288+341567680
1412.92+340193120+338393440+336993312+336288320+335666656+334938272+334686752
1408.42+335185920+335948032+336000064+334005600+329393568+324295392+322632640
1403.92+325682112+330175520+332405824+332119584+330412288+326195200+318228192
1399.42+309382304+304903808+306224864+309583904+310409408+306283936+297417088
1394.92+287701600+283586752+287963360+296444704+302499744+303992352+302908768
1390.42+301268160+298901984+293725472+284134176+272851328+266770320+269693632
1385.92+277265056+282617632+283986240+283714432+283211584+282368064+281494784
1381.43+280782368+279440352+277106624+274708192+273226624+272839456+273138272
1376.93+273045984+271117472+266919056+261708976+257598960+256508384+259152800
1372.43+264033536+268302064+270327008+270407168+269127648+266947376+265290368
1367.93+265589616+267190480+268295296+268371280+267471168+264515744+259004688
1363.43+253384320+250904768+251800512+253960464+256360928+259399104+262716496
1358.93+265040880+265896624+265908672+265632384+265158544+264626656+264301872
1354.43+264258576+264410960+264678976+264868560+264693792+264132576+263556352
1349.93+263342400+263498144+263742864+263828080+263680352+263384128+263089600
1345.43+262903632+262850528+262949984+263206880+263327264+262592208+260397280
1340.93+257082480+253973104+252432800+252862656+254530208+256216784+257166816
1336.43+257611728+258286560+259391040+260353616+260671472+260484352+260182944
1331.93+259937072+259792048+259789088+259860368+259899104+259942656+260035120
1327.43+260055456+259865936+259497600+259065760+258670304+258332320+257948800
1322.93+257508224+257321168+257527904+257456864+256263680+254259680+252752624
1318.43+252499120+253121264+253980496+254762768+255186656+254944048+254105968
1313.93+253184480+252701520+252802720+253214944+253571568+253804352+254040592
1309.43+254158112+253868064+253279344+252872000+252838096+252879360+252711856
1304.93+252432160+252354864+252640096+253052640+253116496+252690208+252205056
1300.43+252116960+252384000+252720000+253016928+253238720+253281936+253175808
1295.93+253148096+253390224+253904112+254522832+254947632+254972912+254769824
1291.43+254697696+254794576+254816512+254741952+254830944+255192208+255650416
1286.93+256031792+256252032+256203328+255867328+255553200+255714352+256435232
1282.43+257308864+257893488+258121776+258167728+258168544+258248464+258544400
1277.93+258996016+259357360+259603664+259994208+260574880+261023392+261176848
1273.43+261272336+261487760+261712272+261925440+262341648+263000640+263626736
1268.93+264059696+264501952+265197856+266131728+267129200+268088976+269023136
1264.43+269978240+270912064+271613952+271886560+271911968+272281664+273445248
1259.93+275231648+277150976+279014496+280889856+282621792+283867200+284633760
1255.43+285364544+286419744+287794912+289338208+290914752+292366656+293584128
1250.93+294651136+295729472+296841888+297919200+299015264+300279072+301711776
1246.43+303091776+304259168+305423456+306991488+309056992+311248064+313202400
1241.93+314995648+316926848+319037248+321082048+322872384+324466496+326053664
1237.43+327796800+329730688+331716160+333519136+335057344+336529792+338206464
1232.93+340120640+342086624+343953728+345725824+347477248+349283200+351182272
1228.43+353081824+354767136+356121120+357263168+358416576+359722848+361210912
1223.93+362778336+364234688+365492256+366679456+367919040+369093504+369984096
1219.43+370587296+371137376+371830880+372634400+373397056+374091776+374784224
1214.93+375368640+375555136+375296000+374995072+375091616+375593152+376199232
1210.43+376661312+376916064+377039136+377140032+377154496+376851840+376168608
1205.93+375363104+374660000+374024544+373407936+372879520+372398784+371789504
1201.43+371000000+370124672+369202368+368275520+367540128+367147232+366936000
1196.94+366567712+365860416+364903168+363953120+363258368+362894752+362717536
1192.44+362492448+362064288+361458496+360895488+360622528+360696224+360994880
1187.94+361389536+361750400+361873760+361653888+361282496+361098368+361303168
1183.44+361898464+362751264+363659584+364490976+365297440+366199232+367226656
1178.94+368376800+369688608+371136512+372571840+373899488+375212384+376655392
1174.44+378188864+379623968+380922624+382316352+383912352+385404128+386522624
1169.94+387615168+389287712+391577408+393938720+395877504+397215616+398069760
1165.44+398954528+400477856+402600064+404702720+406555712+408541376+410827168
1160.94+413103072+415225152+417381056+419572736+421625504+423612576+425727968
1156.44+427898112+429953152+431954432+434058880+436288640+438620000+441044128
1151.94+443547456+446239648+449415680+453272160+457673312+462265216+466685952
1147.44+470722912+474490944+478353280+482520480+486888512+491378080+496140896
1142.94+501305856+506785792+512395136+517979968+523456384+528924000+534649120
1138.44+540791936+547257856+553879040+560569856+567281664+573993664+580748288
1133.94+587544640+594276352+600944256+607814912+615161728+622880832+630544704
1129.44+637862848+644981504+652249792+659798912+667527936+675428160+683599744
1124.94+691884800+699878912+707485056+715099456+723032384+731084096+738963648
1120.44+746764800+754721408+762733376+770481664+777917312+785353728+793017024
1115.94+800663680+807801408+814409856+821214272+828875712+836984512+844425728
1111.44+850855616+857194880+864315264+871822080+878649600+884471808+889989888
1106.94+895989376+902519232+908972672+914815232+920175616+925667392+931594560
1102.44+937563200+942995264+947781632+952319104+957104064+962354688+967824000
1097.94+973035136+977868416+982664832+987618496+992462208+996923968+1001032320
1093.44+1004892480+1008713280+1012969408+1017878656+1022811008+1026965568
1089.58+1030400960+1033677120+1036861760+1039745728+1042612544+1045872704
1085.73+1049265664+1052274944+1055022080+1058002432+1061145024+1063843712
1081.87+1065840896+1067564352+1069512704+1071596992+1073196736+1073741824
1078.01+1073222784+1072148544+1070989504+1069733056+1068211008+1066753984
1074.16+1065933184+1065440704+1063903808+1060413760+1055728128+1051293056
1070.30+1047541760+1043764672+1039220032+1033736512+1027625728+1021454080
1066.44+1015579520+1009703296+1003245824+996084288+988463744+980461888
1062.59+972123840+963715008+955309504+946563072+937310528+927745024+917768512
1058.09+907066880+896029248+885530560+875555008+865123712+853856896+842538880
1053.59+831860032+821547072+811010816+800043520+788698880+777127040+765640384
1049.09+754509696+743678272+732889216+721967680+710882112+699891648+689628480
1044.59+680493440+671859520+662433920+651612032+640102400+629169536+619558336
1040.09+611106432+603065984+594801472+586318272+578033536+570110336+562296256
1035.59+554378496+546452224+538749248+531456672+524635008+518102432+511603040
1031.09+505210496+499287616+493969504+489051616+484429824+480227808+476431904
1026.59+472813984+469235456+465706688+462198048+458748704+455677248+453338336
1022.09+451632192+450005344+448045632+445956896+444341600+443514880+443195360
1017.59+442951456+442716896+442692864+442992000+443622400+444603968+445919776
1013.09+447594048+449902176+453134016+457017312+460864192+464433344+468238592
1008.59+472816448+478077056+483597536+489301408+495578816+502779904+510676704
1004.09+518556832+525922272+533007488+540451904+548554176+557012352+565304576
999.59+573173632+580777152+588482816+596477248+604577664+612489920+620219328
995.09+628040704+636029440+643793536+650887040+657391424+663800064+670223232
990.59+676075264+680833344+684772800+688521664+692103168+694911552+696510592
986.09+697038528+696883264+696306752+695323904+693720192+691244544+687891200
981.59+683925184+679632320+675085120+670069376+664193984+657332928+649971520
977.09+642744960+635595648+627804288+618970304+609539008+600290112+591643840
972.59+583475264+575304512+566718464+557820736+549158336+541060480+533298240
968.09+525546944+517859872+510491232+503511936+496862112+490571776+484678304
963.59+479037728+473454880+468009568+463032224+458697792+454824256+451167328
959.09+447730592+444610720+441794208+439296096+437246880+435580896+433861696
954.59+431724192+429346080+427266208+425870880+425159136+424831264+424487104
950.09+423954656+423476768+423352032+423388704+423022080+422026752+420835008
945.59+420071456+419968800+420305504+420722560+421012576+421182400+421307488
941.09+421417408+421586880+421984864+422631040+423239968+423527136+423500608
936.59+423239968+422728320+422223808+422383360+423537088+425151584+426427744
932.09+427105792+427314176+427062400+426346784+425503552+425026432+425088192
927.59+425364224+425342048+424870912+424413504+424511968+425033088+425310240
923.09+424986752+424292608+423615680+423208704+423147840+423176832+422879872
918.59+422241536+421610080+420950336+419862816+418489856+417563360+417297952
914.09+417029344+416204672+415071136+414163936+413654144+413323296+412827840
909.59+411886688+410430688+408649280+406890240+405465568+404404704+403405440
905.09+402281280+401280832+400603168+399870336+398642464+397140128+395792960
900.59+394501280+393063104+391882560+391378464+391109184+390331328+389143936
896.09+388330240+388270048+388557312+388517888+387720832+386203936+384470592
891.59+383094816+382181088+381439136+380732224+380151040+379559488+378604864
887.09+377340512+376317856+375847840+375560800+374979968+374119296+373251136
882.59+372472192+371800992+371373216+371246816+371232384+371125888+370918208
878.10+370652000+370241440+369570208+368684288+367897632+367630048+367937280
873.60+368212800+367661248+366201824+364676128+364026784+364366944+364910880
869.10+364779296+363911872+363104128+362960480+363010144+362341664+360975392
864.60+359858784+359401952+358925696+357886560+356776768+356200864+355840960
860.10+355107872+354197600+353700000+353699680+353959136+354453536+354999008
855.60+354864000+353437536+350972384+348387104+346779232+346820608+347747936
851.10+347472512+344997760+342073408+340938240+341331584+341403744+340530848
846.60+339332384+338032096+336472064+334933216+333746016+332809344+331873920
842.10+330591360+328790720+327394816+327799040+329567712+330351904+328789856
837.60+325736288+322540544+320224512+319913408+321646976+323193280+322120832
833.10+318521312+314242976+310485824+307543744+305506784+303983680+302298560
828.60+300612992+299516992+298326272+295655808+292039680+289972480+290702400
824.10+292670656+293680832+293065248+291308416+289215552+288024160+288782368
819.60+290818784+292105536+291674176+290488384+289605312+288940736+288313472
815.10+288219808+288751136+288905984+287918976+286474528+285808256+285991488
810.60+285936576+285109856+284498880+285423136+287798560+290308160+291986944
806.10+292772992+292762336+292114528+291605472+292199584+293750752+294940960
801.60+294699424+293460928+292939104
##END=
