##TITLE=octarelline 6 front
##JCAMP-DX=4.24
##DATA TYPE=INFRARED SPECTRUM
##DATE=31/1/2005
##TIME=16:48:1
##SAMPLING PROCEDURE=film
##ORIGIN=Vincent
##DATA PROCESSING=no operation
##XUNITS=1/CM
##YUNITS=ABSORBANCE
##RESOLUTION=2
##FIRSTX=4000.283
##LASTX=800.31372
##DELTAX=-0.64282227
##MAXY=0.14859366
##MINY=0.0065684677
##XFACTOR=1
##YFACTOR=1.3838863e-010
##NPOINTS=4979
##FIRSTY=0.007320107
##XYDATA=(X++(Y..Y))
4000.28+52895290+53433892+53176480+52223848+50908764+49781792+49559632+50421164
3995.14+51462028+51515088+50529700+49531512+49286004+49648380+50170072+50639576
3990.00+50953240+51028340+50885568+50509556+49781032+48850144+48261616+48429924
3984.86+49232424+50235076+50998684+51283680+51283872+51505960+52001904+52031004
3979.71+50965036+49219508+47852676+47463924+47856100+48538008+49290564+50242492
3974.57+51460704+52565828+53037220+52870376+52461216+51873920+50862560+49695324
3969.43+49233372+49900572+51104964+51922980+51972424+51511660+51012372+50808760
3964.28+50937276+51158196+51209912+51146220+51335024+51941808+52537488+52555752
3959.14+52107268+51800892+51782640+51652180+51299272+51001536+50736520+50282028
3954.00+49908744+50034172+50367368+50306356+49902660+49638684+49706916+50121412
3948.86+50908952+51698016+51879432+51487136+51142420+51018456+50802492+50609924
3943.71+50989936+51986496+52948948+53294808+52974244+52247240+51345856+50407280
3938.57+49657316+49435740+49724972+49970320+49844504+49800036+50251804+50847924
3933.43+51228928+51800700+52992504+54388788+55208808+55053084+53997700+52643252
3928.29+51870300+51887420+51974328+51765716+51840644+52426224+52617384+51675960
3923.14+50133768+49092388+49207528+50485792+52256372+53470420+53757172+53822816
3918.00+54308472+54921352+55151692+55019004+54618320+53680292+52174976+50804960
3912.86+50309392+50539020+50640336+50172928+49613036+49564004+49900760+50088916
3907.72+50033796+50233556+51336356+53673256+56804724+59586620+61285852+62358576
3902.57+63321732+63588376+62671704+61660872+61828372+62442536+61621388+58971868
3897.43+55908880+53587632+51918228+50554412+49718508+49746628+50573800+52147776
3892.29+54823132+58532940+61771524+62538892+60528508+57286832+54397352+52746344
3887.15+53140704+55958392+59934932+62673224+62922272+61347460+59049820+56755208
3882.00+55373100+55789108+57691100+59386260+59366052+57742356+55808536+54565600
3876.86+54112636+54178292+54665708+55542924+56476560+56852908+56330300+55505040
3871.72+55900884+58754216+63440836+67354440+67979624+65155140+60939108+57753020
3866.58+56995768+58564772+61020356+62566188+62453032+61382752+60357272+59565836
3861.43+58604216+57274072+55676780+53954688+52574584+52317996+53186748+54241668
3856.29+55842236+60804268+71188928+84388416+94377704+97699616+95499976+89692224
3851.15+81467360+72680816+65048768+58739916+53614648+50471532+49760692+50444732
3846.01+51312780+52267408+53556232+54823900+55574336+55949440+56658824+58168968
3840.86+59902324+60869108+61712572+64772636+70544744+75432952+75548680+71912864
3835.72+68473024+66611684+64693400+61705700+58819776+57432572+57436192+57626508
3830.58+57093672+55938960+54769260+53855544+53152688+52858396+53263612+54099888
3825.44+54650296+54500696+53927096+53979240+56248984+61476600+67915016+72068664
3820.29+71909040+68357736+63468124+59107960+57374652+59838836+65358916+69927272
3815.15+70179752+66473728+61345360+56525884+52550612+49783316+48537252+48469244
3810.01+48711268+49035388+50543960+54593204+60748392+66139780+67671128+65001796
3804.86+60492276+56788336+55638308+58092752+64022664+71034136+75179088+74263048
3799.72+69768144+64629048+60652848+58416696+57912112+58432896+58677400+57768076
3794.58+55951156+54071540+52763288+52164696+51951124+51618340+50934424+50097088
3789.44+49456256+49272320+49544244+49872260+49848684+49774760+50349500+51429328
3784.29+51988972+51570428+50799828+50313764+50319844+51213524+53291952+55753124
3779.15+57125868+56856912+55620796+54290584+53352080+52887688+52534828+51854712
3774.01+50951344+50232604+49824168+49964240+51493416+54841408+58802240+61258388
3768.87+61127548+59100904+56754056+55488472+55853660+57198636+58090276+57472580
3763.72+55483328+53194548+51777500+51925072+53749748+56714436+59513216+60746864
3758.58+60301776+59457744+59202504+59319924+59216992+58673208+57906964+58197360
3753.44+61792892+69159608+76785200+80592664+81533976+83574576+87004480+87881744
3748.30+83745352+76537736+69941416+67443304+71818896+82501488+93134040+95607960
3743.15+88722296+78346096+69550304+63389864+59270932+56993676+56569692+57796268
3738.01+60513636+64508368+68980448+72649232+74485040+74246184+72743032+71619872
3732.87+72003008+73039208+72474648+69193656+64326412+59687848+56460376+55457060
3727.73+56964332+59853900+62036516+62403800+61515320+60329240+59417332+59301816
3722.58+60109012+60806360+60082120+58125136+56397908+55747224+55752176+55766644
3717.44+55696764+55727616+55883936+55952680+55813676+56210516+58784888+64228276
3712.30+70379464+73651920+73050688+71073936+69961128+69184088+67211296+64059892
3707.16+61103320+59296480+58436328+57721008+56705300+55911548+56399048+58467008
3702.01+60943492+62140488+61485752+59888408+58502072+57626140+56992336+56644160
3696.87+56850432+57279408+57136920+56334488+55680396+55844520+57021672+59378064
3691.73+62673616+65804724+68220480+71251128+76073544+80849648+82017216+78638000
3686.59+73183752+68086664+64028960+60982016+58878660+57432952+56424188+56114152
3681.44+56885480+58668068+60928616+62857948+63762464+64057596+65734228+70806072
3676.30+78872200+86619888+90297040+88771944+83772056+78155664+74821024+75721904
3671.16+80288864+85293960+87656296+87070448+84785232+81380392+77152680+73074624
3666.02+70006840+67980008+66870584+66730908+67181872+67559688+67841424+68456960
3660.87+69323296+69922688+70072640+70138432+70972720+73658816+78296040+82996592
3655.73+85297232+84741224+82872136+81134304+80207880+80741784+83371336+88080656
3650.59+94040576+99825296+103910632+105710856+105857104+104831688+102214456
3646.09+98104480+94051744+91541504+90527296+90179616+90116280+90297232+90559256
3640.95+90859040+91399760+92222960+93150032+94141576+95278032+96434184+97447992
3635.80+98496096+99960280+101942952+104123912+105968736+107042728+107560888
3631.30+108908456+113112872+120991160+130474568+137385136+138817520+135511184
3626.80+130344496+125536912+121939032+119855072+119384616+120077584+121104696
3622.30+122140312+123850032+127101232+131682384+136130576+138944608+139761584
3617.80+139196064+138077008+137141056+136837024+137068544+137650896+139081872
3613.30+141961760+145535888+148031456+148931232+149719248+151679040+154147504
3608.80+155643776+155821296+155413216+154909120+154319024+153872464+153991504
3604.30+154538320+154798080+154540096+154671152+156250048+158940512+161149248
3599.80+161908608+161997040+162805104+164731088+167205888+169714448+172068912
3595.30+173990128+175218352+175999760+176861680+177780832+178127488+177675536
3590.81+177369712+178611184+181848496+186184800+190382992+193841376+196339280
3586.31+197429904+196784784+194998816+193358528+192740480+193062128+193752448
3581.81+194472000+195314320+196487632+197955616+199351760+200327376+201043424
3577.31+202127920+203940464+206075056+207914864+209422608+210890880+212191504
3572.81+212952096+213325280+213871712+214836448+216317648+218808016+222660560
3568.31+227128848+230785648+232819664+233394720+233066704+232532224+232490528
3563.81+233073728+233727600+233992608+234018624+234193936+234787312+235980128
3559.31+237698528+239420352+240673088+241588880+242617552+243895808+245200688
3554.81+246307216+247218800+248262880+249887376+252079984+254224896+255794816
3550.31+256847424+257643312+258356528+259380160+261207984+263716112+266164624
3545.81+268097648+269602624+270719808+271402112+272037312+273184544+274762784
3541.31+276136320+276972064+277473888+277965376+278763360+280209216+282314656
3536.81+284567744+286431232+287820736+288942560+290027104+291335712+293005664
3532.31+294758048+296127200+297032224+297813280+298787104+300049952+301577312
3527.81+303164960+304423360+305189376+305833888+306986944+309020064+311723104
3523.31+314312288+315858176+316079136+315730112+315965760+317274656+319151264
3518.81+320721920+321587616+322086880+322842304+324147456+325939104+328156864
3514.31+330629152+332727552+333789856+334079872+334661664+336131648+338075776
3509.81+339917120+341579520+343072576+344125632+344666688+345178656+346258976
3505.31+348078784+350427072+353011808+355521536+357565984+358761312+359056992
3500.81+358970816+359238624+360086272+361161440+362303136+363883776+366072448
3496.31+368280480+369735584+370323168+370670912+371610528+373477312+375635328
3491.81+377047008+377642976+378483968+380133408+381799520+382666432+383113152
3487.31+383956736+385388000+387188960+389092160+390606080+391396160+391944992
3482.81+392992608+394518112+396022944+397403712+398818848+400232288+401638240
3478.31+403098208+404345088+405106240+405816736+407158560+409076288+410986592
3473.81+412522208+413423904+413497280+413300320+413990048+415945888+418363744
3469.31+420436736+422064064+423392512+424568352+425872864+427319104+428402080
3464.81+428836544+429119584+429940256+431437280+433322016+435278112+437070496
3460.31+438584736+439845568+440808448+441349280+441538272+441745888+442454816
3455.81+444013856+446311552+448577184+449929888+450280672+450388288+451041280
3451.31+452494400+454527168+456621792+458263200+459383584+460336128+461378592
3446.81+462541920+463956160+465742016+467560608+468793408+469318592+469762816
3442.31+470829280+472493216+473958016+474558272+474626848+475201792+476751968
3437.81+478596128+479757152+480102624+480424160+481543488+483477088+485505184
3433.31+487055392+488280896+489546528+490766080+491643904+492274976+492996832
3428.81+493954784+495134432+496515936+497884864+498924704+499691232+500642400
3424.31+502049408+503644448+504950080+505834752+506701024+508075648+509961920
3419.81+511841952+513414368+514861792+516198368+517017376+517198688+517238432
3415.31+517616672+518413376+519705504+521686624+524149792+526390560+527772768
3410.81+528227584+528219872+528344672+528854464+529628352+530687488+532344640
3406.32+534553760+536609248+537922944+538646848+539190080+539613952+539842112
3401.82+540094080+540807296+542292224+544408640+546445760+547563328+547625472
3397.32+547359744+547612288+548640000+550101888+551433088+552326464+553056832
3392.82+554131200+555536896+556774464+557591936+558111232+558355712+558417088
3388.32+558909952+560324480+562099136+563299072+564037120+565197760+566912704
3383.82+568419584+569373184+570217280+571148800+571665856+571468096+571258944
3379.32+572233600+574843968+578181888+580724480+581832448+582320192+583327872
3374.82+584927616+586302720+587026560+587589568+588657856+590295936+592022400
3370.32+593394752+594412992+595405760+596587136+597853696+598964864+599668800
3365.82+599776320+599480832+599565568+600744960+602782016+604780672+606321344
3361.32+607708416+609151616+610357440+610944896+610840960+610401984+610418816
3356.82+611651200+613965184+616312768+617879296+618804928+619606784+620489856
3352.32+621487552+622693760+624052672+625333120+626479232+627646016+628797952
3347.82+629702656+630443264+631517056+633129216+634687040+635378688+635141568
3343.32+634701440+634706752+635316992+636565632+638458688+640627072+642521920
3338.82+644129472+645867840+647731648+649196480+650012224+650462784+650923392
3334.32+651697088+653092096+655058944+656984448+658323200+659174016+659921344
3329.82+660701568+661495424+662392576+663576256+665173568+667058304+668694912
3325.32+669509568+669589632+669649664+670328384+671874432+674270208+677042752
3320.82+679230720+680187584+680278656+680405440+681201600+682824832+684934016
3316.32+686764096+687865216+688732672+690105088+691977152+693952448+695990400
3311.82+698060800+699707072+700665920+701298368+701924992+702451904+702998272
3307.32+704075392+705847616+707876992+709693696+711047872+711752256+711916992
3302.82+712178880+713174656+714873472+716689216+718019840+718616640+718770752
3298.32+719181120+720375872+722252416+724238208+725717248+726306624+726148352
3293.82+726008832+726643072+727966272+729157952+729662528+729789760+730268416
3289.32+731366336+732576128+733145728+732903552+732378880+732129472+732226048
3284.82+732498368+732852928+733128000+733026432+732569024+732227904+732324544
3280.32+732686912+733165568+733851072+734391872+733894528+732139840+730220096
3275.82+729191040+728814656+728418752+728126272+728293760+728624576+728792512
3271.32+728985280+728928192+727607360+724972224+722608000+721637248+721207168
3266.82+720115840+718607744+717484672+716642368+715609856+714652992+714411968
3262.32+714873344+715262336+714747456+713176768+711233856+709677952+708533312
3257.82+707451392+706526656+705983424+705448704+704464064+703304576+702463680
3253.32+701880576+701394944+701207424+701136960+700399872+698873152+697642688
3248.82+697558976+698023488+697885120+696945600+696080768+696139648+696972928
3244.32+697506240+696836992+695159808+693318272+691725888+690258688+688932032
3239.82+688042240+687691968+687652864+687609728+687372032+687004160+686738496
3235.32+686533120+685980032+684955200+683962496+683404608+683014592+682421440
3230.82+681815616+681593920+681763776+682126208+682723200+683653952+684465984
3226.32+684189568+682387968+680043456+678743552+678891520+679360064+679123200
3221.83+678373632+677748224+677317952+676765248+675955392+675067328+674518592
3217.33+674656576+675197888+675311808+674681664+673947200+673704768+673680640
3212.83+673382656+672846080+672238912+671376320+670248640+669522304+669726720
3208.33+670192896+669637824+667910976+666282432+665679040+665537088+664982592
3203.83+664193088+663771136+663566784+663063552+662337792+661803072+661532160
3199.33+661380672+661287616+661057344+660366144+659217536+658033664+657250560
3194.83+656974784+656872640+656374080+655361792+654443008+654051968+653757568
3190.33+653158336+652740544+652892800+652813824+651585088+649691008+648366272
3185.83+647924544+647678272+647096640+646182208+645062720+643844928+642681536
3181.33+641622912+640675584+640067584+639994944+640055744+639514688+638306816
3176.83+637188288+636651648+636279104+635440448+634126336+632746304+631560512
3172.33+630597568+629734400+628696448+627381696+626225920+625774272+625883904
3167.83+625839616+625293440+624599040+624146240+623809664+623249792+622534784
3163.33+622186240+622513152+623045568+622872896+621550080+619404096+617002944
3158.83+614716800+612816192+611545792+610903744+610546496+610105984+609606528
3154.33+609418048+609603648+609475328+608341376+606653824+605656768+605722752
3149.83+605931520+605493440+604675520+603953408+603145408+601893248+600404544
3145.33+599270080+598799552+598729856+598544256+598070080+597551424+596922112
3140.83+595513600+593080384+590668288+589572672+589704768+589809024+589092672
3136.33+587868160+586738624+585902912+585306240+584904384+584599808+584215488
3131.83+583647296+582982976+582449728+582213184+582082368+581480000+580008576
3127.33+578085888+576645760+576109248+576011776+575750400+575266112+574800576
3122.83+574469696+574219776+573891136+573233088+572251840+571402368+570963200
3118.33+570424768+569097856+567174208+565572032+564856000+564781632+564761088
3113.83+564387264+563576000+562432512+561092864+559676288+558358400+557280064
3109.33+556366016+555490240+554734720+554195520+553630016+552689856+551389568
3104.83+550103680+549245440+549018432+549161856+548982464+548075584+546920640
3100.33+546224896+545862528+545108864+543786816+542541824+542076672+542562496
3095.83+543621760+544491008+544457344+543508160+542293696+541210688+539889856
3091.33+537992896+536016544+534792384+534433120+534410464+534490784+534870944
3086.83+535333888+535073920+533726400+532012192+530871776+530318656+529654880
3082.33+528537728+527323520+526354496+525420192+524215040+523006752+522443744
3077.83+522720960+523297536+523503520+523120064+522371232+521595648+520978112
3073.33+520388608+519536704+518397728+517326880+516640704+516314336+516115264
3068.83+515785824+515120800+514198464+513443808+513122176+512956128+512564480
3064.33+511954976+511228000+510275968+509147296+508234528+507681888+507134944
3059.83+506358976+505548064+504765600+503754304+502579712+501795232+501585536
3055.33+501357088+500549152+499387968+498414304+497633376+496585440+495120224
3050.83+493753376+493129344+493268576+493529696+493288704+492449152+491244480
3046.33+489844800+488317888+486776608+485381760+484331776+483807264+483684192
3041.83+483408832+482509280+481141600+479776896+478564960+477403296+476360288
3037.34+475497536+474548736+473339168+472294208+471898560+471854400+471408960
3032.84+470477888+469761664+469652064+469573600+468691488+466908480+464809376
3028.34+462916256+461449408+460559168+460222624+459993888+459340704+458257376
3023.84+457138464+456197984+455382976+454684736+454115456+453494048+452581024
3019.34+451320320+449871584+448563616+447704864+447147872+446290368+444845952
3014.84+443302656+442216160+441473952+440603744+439451104+438189216+437054208
3010.34+436255776+435776704+435215104+434201088+432896640+431750624+430995200
3005.84+430712192+431004832+431609184+431705344+430644640+428711520+426828896
3001.34+425659008+425274464+425416512+425705568+425707008+425186912+424383328
2996.84+423782368+423560736+423485792+423314816+422998016+422477024+421688320
2992.34+420833024+420293632+420154208+420109120+419887968+419504128+419121280
2987.84+418903840+418916896+418996640+418895936+418683008+418719808+419092800
2983.34+419404128+419304480+418978240+418845952+419003296+419180960+419207008
2978.84+419265600+419600608+420175136+420825152+421554432+422419488+423249472
2974.34+423831616+424224512+424569504+424787904+424849184+425098464+425850144
2969.84+426882048+427723392+428278816+428787616+429322656+429714784+429963200
2965.34+430401920+431309600+432421248+433093312+433051904+432756416+432779840
2960.84+433071232+433211232+433124608+433105536+433231808+433220000+432878144
2956.34+432346144+431807936+431202304+430357984+429296768+428175040+426940576
2951.84+425385856+423692384+422496064+422111104+422054240+421735840+421215936
2947.34+420906432+420866208+420843296+420739968+420726944+420965024+421364192
2942.84+421538560+421189152+420625760+420528928+420948736+421186816+420975488
2938.34+421029408+421958976+423340032+424298368+424422720+423792608+422748448
2933.84+421811136+421182816+420409760+419159360+418039264+417772224+417938464
2929.34+417536544+416489280+415615072+415346048+415409472+415511360+415481856
2924.84+415002528+413900672+412453920+410925440+409232096+407540256+406505472
2920.34+406287040+405976640+404695520+402741600+400976704+399627552+398376640
2915.84+397153632+396137792+395230240+394146944+392841184+391485760+390265024
2911.34+389341184+388751712+388192800+387251008+385870208+384320128+382775232
2906.84+381284992+379958592+378763200+377403296+375772384+374235040+373139808
2902.34+372426752+372005344+371975008+372123712+371769280+370537024+368952160
2897.84+367916608+367783904+368105888+368105216+367370432+366156736+364908384
2893.34+363607360+361993888+360301536+359149088+358708000+358624544+358738240
2888.84+359189120+359855968+360330912+360418624+360155552+359495744+358467104
2884.34+357467488+356972800+357099008+357614624+358107680+358132640+357663680
2879.84+357408960+358120896+359523904+360493728+360347712+359533312+358984448
2875.34+359199808+360007424+360901248+361439776+361483200+361165696+360677952
2870.84+360114624+359527008+358984864+358462080+357730528+356541504+354979008
2866.34+353503296+352537088+352144288+352118528+352220864+352257056+352162048
2861.84+352018496+351848160+351382432+350322720+348794080+347340704+346403296
2857.34+345925216+345512352+344938752+344468416+344449184+344653568+344414560
2852.85+343508928+342441440+341731616+341338208+340922848+340261472+339353312
2848.35+338391232+337560192+336758368+335855168+335156352+334987136+334894752
2843.85+334077568+332581760+331237760+330497376+330083424+329624832+328999104
2839.35+328283552+327789952+327747616+327749248+327114944+325856512+324558752
2834.85+323481696+322577760+322072608+322092512+322061824+321382880+320365600
2830.35+319701920+319434336+319057664+318273568+317144096+315866880+314734912
2825.85+314014176+313664160+313387424+313001120+312603296+312363392+312276416
2821.35+312103712+311597504+310830592+310207744+310044864+310165824+310021952
2816.85+309226048+307988992+306985728+306669920+306732224+306418752+305363808
2812.35+303906720+302648064+301924928+301667680+301550528+301251776+300755808
2807.85+300357088+300241152+300137440+299583584+298538176+297527232+297056064
2803.35+297038624+296990496+296590784+295837376+294833440+293747680+292865184
2798.85+292384928+292229888+292097312+291571744+290334272+288619392+287254720
2794.35+286791488+286839456+286710784+286310336+285904192+285531104+285184064
2789.85+285065056+285111968+284792608+283805984+282581728+281799776+281708512
2785.35+281972896+281982496+281388096+280426816+279546816+278824480+278179552
2780.85+277877280+278135808+278488608+278211264+277200448+275939840+274914912
2776.35+274388992+274315680+274212192+273618432+272723808+272079328+271786816
2771.85+271488608+270955072+270195808+269281184+268431360+267944016+267767408
2767.35+267460848+266743696+265794272+265023792+264714624+264745552+264568512
2762.85+263751104+262560560+261680640+261421216+261501136+261417392+260834944
2758.35+259893552+259185904+259045312+258971184+258325072+257284544+256411600
2753.85+255704896+254889248+254198704+254036048+254249008+254415312+254398080
2749.35+254145568+253451968+252370496+251370048+250777552+250419936+249951808
2744.85+249254848+248483200+247906992+247648736+247559040+247469984+247404416
2740.35+247257456+246629920+245387360+244092320+243403168+243306144+243290560
2735.85+243028208+242569232+242118016+241821808+241594960+241090336+240087216
2731.35+238890432+238069456+237796816+237688896+237296848+236533536+235627872
2726.85+234855664+234381184+234184448+234059728+233734832+233102160+232345712
2722.35+231782960+231564656+231544544+231455920+231169392+230743728+230245920
2717.85+229685184+229127744+228687120+228345296+227977184+227621760+227453824
2713.35+227403968+227134480+226533264+225893376+225495168+225277328+225004208
2708.85+224533616+223954992+223576336+223619344+223844928+223786448+223341760
2704.35+222750704+222106736+221391280+220830096+220614384+220408912+219766032
2699.85+218860976+218272736+218189152+218265952+218097312+217536736+216712656
2695.35+215925056+215411168+215190976+215199008+215355680+215382528+214863472
2690.85+213735552+212485312+211673808+211411856+211376832+211202784+210788464
2686.35+210274976+209813376+209478816+209361424+209514784+209748160+209642784
2681.85+208904176+207623264+206282384+205510016+205535568+205829760+205620256
2677.35+204803904+203927104+203338896+202925632+202613744+202503200+202507584
2672.85+202355360+201949568+201378096+200695472+199976288+199452400+199340576
2668.36+199603104+199948976+200038896+199694624+198923424+197785488+196459744
2663.86+195432576+195246848+195841888+196517472+196691344+196356224+195745120
2659.36+195016736+194298064+193663712+193108672+192725568+192676432+192839728
2654.86+192867168+192661920+192385072+192040832+191502960+190856864+190299520
2650.36+189891328+189667376+189676720+189725200+189532672+189217328+189143024
2645.86+189260848+189090976+188399872+187493088+186849392+186696528+186844432
2641.36+186867072+186581984+186251088+186168112+186280656+186399952+186450384
2636.86+186331872+185883904+185179808+184549296+184232496+184207680+184273760
2632.36+184130928+183577568+182823248+182375968+182524080+183124624+183852448
2627.86+184361840+184339024+183748928+182960448+182334336+181846128+181330208
2623.36+180838576+180493008+180204560+179867184+179642352+179760832+180129280
2618.86+180413376+180482912+180480336+180458528+180291520+180012192+179892944
2614.36+180042704+180232496+180278048+180299056+180444864+180584368+180431392
2609.86+179882240+179208640+178929792+179315568+179998112+180352528+180254272
2605.36+180082320+179999136+179773312+179373408+179157536+179302688+179553632
2600.86+179680208+179773504+179956320+180142144+180163744+179949600+179585744
2596.36+179308624+179332400+179579184+179725552+179603168+179379536+179288048
2591.86+179310608+179206448+178769600+178058608+177387936+177104288+177349728
2587.36+178032848+178878896+179506096+179666736+179538768+179514624+179675648
2582.86+179781216+179769920+179779840+179689904+179215168+178513760+178109072
2578.36+178156784+178366240+178640480+179160896+179851744+180334112+180402672
2573.86+180149472+179726352+179356768+179361920+179819456+180370768+180591488
2569.36+180405840+180069440+179929600+180186928+180705424+181119552+181219840
2564.86+181081696+180855600+180706992+180864128+181385104+181967792+182321072
2560.36+182574816+182977712+183410800+183549616+183332448+182990000+182735408
2555.86+182609920+182540912+182505232+182638864+183086560+183735056+184285456
2551.36+184581232+184648496+184520736+184333664+184439392+185056592+185906128
2546.86+186512912+186730864+186682624+186449776+186161376+186156400+186672304
2542.36+187443648+187954992+188082688+188218544+188715296+189430736+189937632
2537.86+190084480+190173712+190561104+191246496+191907984+192263168+192316656
2533.36+192315664+192495248+192867376+193250704+193533600+193830864+194274976
2528.86+194751824+195044000+195213600+195564352+196187952+196787744+197065776
2524.36+197073552+197068976+197222336+197590640+198133552+198649632+198896320
2519.86+198870416+198826384+198976848+199294144+199644752+199953568+200224496
2515.36+200486880+200729168+200932160+201166080+201589920+202255200+203036576
2510.86+203784976+204428144+204891952+205131776+205258992+205444320+205696928
2506.36+205900304+205993360+206012928+206034912+206187920+206582864+207179472
2501.86+207834912+208439360+208906368+209187872+209427424+209892176+210609008
2497.36+211317392+211874480+212388416+212867648+213082448+212955520+212816976
2492.86+213057808+213644432+214135472+214188912+213952624+213888720+214281440
2488.36+215031504+215865968+216550528+216954992+217074656+217041376+217033744
2483.87+217184496+217534912+217948928+218203792+218299232+218469504+218763888
2479.37+218966464+219112896+219619776+220623808+221685776+222385632+222742672
2474.87+222835232+222545680+221912048+221326240+221145616+221364384+221722896
2470.37+221998528+222198304+222515168+223048912+223631776+224038976+224244320
2465.87+224326256+224344928+224422080+224715648+225201152+225702608+226136432
2461.37+226488208+226686064+226717040+226753440+226952912+227275456+227615552
2456.87+227902528+228043552+228012576+227939360+227901136+227836176+227823312
2452.37+228126016+228697152+229072224+229057712+229069168+229450704+229898304
2447.87+229939984+229605664+229267408+229067552+228877616+228666576+228602000
2443.37+228796128+229128336+229410880+229647536+229991696+230443792+230749008
2438.87+230716384+230499568+230396480+230495536+230652144+230741744+230755040
2434.37+230744352+230799712+230984944+231202592+231216912+230921744+230505792
2429.87+230274096+230384432+230770320+231247328+231632544+231855680+231958176
2425.37+231997648+231993440+231982544+232033904+232109440+232040176+231755376
2420.87+231450480+231386256+231583392+231865152+232119696+232357792+232548944
2416.37+232599904+232477232+232196256+231766432+231306688+231088240+231220512
2411.87+231437184+231461984+231421904+231591248+231919312+232152512+232282448
2407.37+232476608+232677680+232631728+232303200+231967440+231856672+231920704
2402.87+231940064+231778528+231465568+231124464+230876624+230803328+230896944
2398.37+231053008+231186096+231334528+231520336+231606752+231456512+231152256
2393.87+230845424+230494320+230017264+229607664+229594608+230010016+230495728
2389.37+230637264+230319808+229802912+229486928+229527200+229700448+229711728
2384.87+229534032+229391968+229482112+229805120+230236432+230721408+231355440
2380.37+232206912+233165232+234119760+235195792+236576496+238204416+239910560
2375.87+241699808+243691232+245925648+248421392+251219488+254249408+257368368
2371.37+260608560+264089296+267638064+270833984+273539040+276059104+278654592
2366.87+281162624+283261952+284929632+286429344+287905632+289198976+290097056
2362.37+290585056+290773984+290741184+290539648+290203168+289599776+288404096
2357.87+286333472+283399744+279943552+276434336+273122528+269827648+266196384
2353.37+262136528+257835216+253382816+248656464+243619248+238586896+234291072
2348.87+231721536+231632112+233897664+237502432+241330912+244867376+248099920
2344.37+251066048+253698752+255958592+257906496+259656864+261254512+262579456
2339.87+263384528+263551344+263347696+263341184+263904928+264756544+265157920
2335.37+264653168+263490112+262262784+261291728+260434368+259408176+258192624
2330.87+257051440+256114048+255100832+253702176+252040496+250404544+248727136
2326.37+246833104+244950496+243430240+242150752+240736272+239132880+237489504
2321.87+235785120+234009136+232354368+230884480+229365584+227685920+226053776
2317.37+224640912+223385344+222178416+220933872+219510256+217872960+216247520
2312.87+214896128+213873904+213106464+212487680+211864688+211157376+210436800
2308.37+209726976+208883376+207860320+206871344+206075056+205383808+204721856
2303.88+204166032+203710336+203203408+202657824+202303472+202198528+202082048
2299.38+201709024+201134976+200519776+199866240+199096624+198310880+197749632
2294.88+197501616+197423712+197345648+197169936+196763632+196024272+195149104
2290.38+194556768+194379440+194268416+193834432+193129360+192566448+192450304
2285.88+192632080+192629104+192142432+191416096+190950288+190889248+190925232
2281.38+190722880+190191984+189384416+188447360+187645584+187206368+187140048
2276.88+187324912+187625328+187858080+187869184+187726624+187602288+187435296
2272.38+187012384+186419808+186048432+186074416+186233216+186197904+185922416
2267.88+185523904+185071872+184618144+184245184+183967696+183681488+183292384
2263.38+182828016+182375968+181994576+181708160+181490720+181245984+180894848
2258.88+180497984+180215248+180146112+180257072+180376528+180224960+179616832
2254.38+178729392+178006912+177718096+177773312+177936448+177992656+177766976
2249.88+177284608+176830992+176633504+176572160+176440976+176261712+176103232
2245.38+175844256+175359200+174782464+174396448+174354528+174517488+174532704
2240.88+174187840+173733888+173578304+173692960+173677328+173345824+172814512
2236.38+172152880+171447920+171033072+171135392+171483472+171683216+171687968
2231.88+171554000+171155152+170508688+169983584+169865904+169999584+170027408
2227.38+169780976+169408832+169258976+169501824+169785344+169574256+168883888
2222.88+168264544+167985680+167742384+167281856+166810752+166607184+166610928
2218.38+166598912+166499888+166368336+166246448+166204832+166344256+166603648
2213.88+166678992+166356496+165833856+165450144+165184736+164761056+164175216
2209.38+163695328+163386928+163101616+162903216+163021040+163354608+163453328
2204.88+163073440+162454640+161985232+161776672+161608272+161249472+160809200
2200.38+160652480+160892496+161158112+161056128+160624336+160174896+159886528
2195.88+159727904+159614704+159507056+159434832+159450784+159495648+159402368
2191.38+159094384+158664448+158219440+157805344+157468240+157232816+157016288
2186.88+156740416+156480080+156363296+156364848+156306272+156059344+155677776
2182.38+155325552+155116256+155054544+155117440+155246560+155253056+154933872
2177.88+154380720+153924336+153701552+153552080+153410640+153451488+153692512
2173.38+153818432+153559920+153004256+152414928+151955264+151641344+151429760
2168.88+151266608+151112912+150939808+150750208+150614992+150629120+150797904
2164.38+151039904+151261104+151283488+150852656+149995696+149191536+148845136
2159.88+148790608+148653520+148461904+148479376+148664496+148710992+148492704
2155.38+148152640+147865968+147693632+147596768+147520896+147513248+147647728
2150.88+147793808+147722240+147479136+147330720+147282112+147079200+146737344
2146.38+146599568+146782032+146983952+146916528+146574288+146075312+145547424
2141.88+145177152+145139712+145416176+145744352+145789808+145453984+145036480
2137.38+144917360+145042960+144991824+144579472+144062416+143711088+143522336
2132.88+143373136+143190064+142987440+142916752+143090032+143247440+142945952
2128.38+142250256+141824976+142112464+142782080+143174224+143014464+142533072
2123.88+142057456+141656672+141191744+140681312+140442448+140695600+141153392
2119.39+141306032+141042064+140755072+140828816+141176288+141350240+141108784
2114.89+140743328+140647648+140689712+140420752+139842352+139433456+139426608
2110.39+139592032+139726400+139813232+139762176+139513616+139304192+139366192
2105.89+139524752+139471184+139226368+139022800+138950480+138937952+138870880
2101.39+138621840+138196816+137840112+137789488+137997856+138224784+138251168
2096.89+137960304+137456656+137101392+137139296+137353280+137383744+137190496
2092.39+136914000+136571296+136258912+136299936+136748896+137086144+136858128
2087.89+136318880+136013760+136020384+136033680+135936800+135860416+135848896
2083.39+135829936+135788528+135714128+135520752+135242272+135117664+135236608
2078.89+135300064+134992304+134436208+134027584+133942680+134027784+134019592
2074.39+133730896+133183408+132718768+132750576+133241376+133671928+133712352
2069.89+133613568+133726592+133940728+133914576+133612400+133299920+133172472
2065.39+133234136+133394784+133465032+133246640+132808904+132474856+132415744
2060.89+132456912+132429592+132454960+132707640+133065928+133212304+132992144
2056.39+132580016+132293784+132282480+132403064+132448312+132420024+132467624
2051.89+132554264+132393104+131792400+130969888+130455640+130619840+131271992
2047.39+131812104+131852688+131581736+131400136+131370112+131225768+130815432
2042.89+130316416+130040528+130106624+130291480+130273144+130100000+130187744
2038.39+130687496+131159256+131161208+130807232+130432640+130079528+129670696
2033.89+129335232+129233880+129334656+129562712+129857864+130025528+129900744
2029.39+129664088+129641864+129849280+130064120+130173112+130095120+129660376
2024.89+128956128+128511776+128767856+129537960+130253848+130542232+130407096
2020.39+130088496+129845184+129778512+129834848+129982824+130206064+130325192
2015.89+130116760+129623912+129073456+128562640+128128680+127966776+128174496
2011.39+128462480+128508088+128416112+128483728+128705688+128877192+129000168
2006.89+129258432+129668760+129996280+130005824+129705016+129323336+129096648
2002.39+129119272+129381024+129809320+130208200+130334752+130168240+129938960
1997.89+129830760+129845768+129969376+130192224+130322088+130110336+129668560
1993.39+129535416+130136856+131213296+131879808+131435240+130146992+129026864
1988.89+128759880+129135032+129625288+130075624+130524664+130798456+130720840
1984.39+130488608+130443944+130625688+130810352+130871784+130852672+130763352
1979.89+130529736+130189496+129992584+130174488+130688280+131264776+131703648
1975.39+131957648+132031192+131994512+132004848+132121128+132190776+132071960
1970.89+131819520+131535312+131295208+131291304+131727256+132449104+132978888
1966.39+133059872+132892624+132757784+132701000+132657488+132613784+132580216
1961.89+132584136+132685984+132834680+132797400+132474072+132211064+132509784
1957.39+133382096+134274944+134659376+134427632+133753928+132944352+132443632
1952.89+132526568+132884048+132936544+132595048+132340808+132512720+132967568
1948.39+133420736+133712352+133747480+133555800+133346760+133329200+133625688
1943.89+134418432+135758272+137116048+137622176+136995280+135836592+134915168
1939.39+134527776+134530320+134641024+134716976+134916928+135482288+136314576
1934.90+136983552+137208848+137086144+136848544+136666064+136603344+136578528
1930.40+136420272+136112016+135844784+135775056+135939520+136368496+136993120
1925.90+137515280+137722064+137849504+138229872+138674608+138687104+138278352
1921.40+138036160+138343040+139056256+140095456+141699920+143666256+144847248
1916.90+144138800+141847280+139501872+138414784+138738720+139678864+140333312
1912.40+140377504+140206736+140420752+141102336+141719680+141784048+141394464
1907.90+141015456+140895520+140873232+140734320+140593664+140778928+141364128
1903.40+142021056+142405872+142506656+142494720+142436400+142312688+142129680
1898.90+141911664+141751392+141921632+142701824+143989184+145192608+145661264
1894.40+145233184+144378320+143785712+143776320+144242016+145105440+146452176
1889.90+147943616+148577216+147721072+146100016+145070768+145111504+145620112
1885.40+145978320+146117056+146142336+146100992+146189776+146610336+147179984
1880.90+147523456+147591872+147617936+147694416+147724016+147666960+147584608
1876.40+147614208+147971264+148697840+149442624+149852256+150042784+150304736
1871.90+150639520+151109984+152271968+154483488+156995840+158444496+158299312
1867.40+157222000+156028880+154886320+153614144+152322640+151500800+151485680
1862.90+152032640+152592048+152918048+153210672+153702512+154326496+154848800
1858.40+155170688+155403392+155582256+155479472+154982240+154552832+154844656
1853.90+155804592+156688304+156998208+156901456+156776800+156868816+157311872
1849.40+158062256+158930288+159779056+160354432+160316224+160353648+162543264
1844.90+167853488+173502784+174971536+171284752+165792448+161740832+159776320
1840.40+159228208+159547424+160330608+161200272+161934224+162332688+162261408
1835.90+161969472+161810528+161735696+161607680+161618320+161904288+162556080
1831.40+164311024+167873792+172032752+174065056+172854064+170057424+167802368
1826.90+167044912+167972672+169988528+171342224+170576032+168365392+166547616
1822.40+165892432+165966784+166337568+166776240+166925760+166693776+166526704
1817.90+166749408+167102528+167215968+167095424+167019072+167258592+167843808
1813.40+168478864+168932848+169502800+170627376+172034704+172832096+172573600
1808.90+171755728+171163840+171130656+171510944+171987296+172196752+171872496
1804.40+171247408+171165632+172258800+174010480+175224496+175531104+175695280
1799.90+176187312+176330960+175378576+173800096+172865312+173190672+174029872
1795.40+174205040+173920528+175178608+179538576+185538192+189401904+188960464
1790.90+185572912+181686160+178489792+176252816+175116112+174869088+175082880
1786.40+175879264+177637920+179727728+180619808+179672288+177971296+177099552
1781.90+177777856+179560384+181221792+181620752+180716512+179460752+178619696
1777.40+178327440+178644448+179498576+180233680+180710368+182709040+188300768
1772.90+196372336+202265568+202177792+196884944+190279264+186125248+186125840
1768.40+188930256+190928016+189673536+186311424+183477440+182114704+181573200
1763.90+181755536+183710848+187899200+192550720+194531696+192516128+188585200
1759.40+185820000+185444720+186955408+189519328+191895264+192324000+190429104
1754.90+188090448+187080880+187554640+189756192+194762160+201783600+206870336
1750.41+207044944+204146496+201910272+201508544+201585728+200888704+199448016
1745.91+197921568+196961392+197086288+198453920+200392992+201563984+201505760
1741.41+201925440+204981008+209873952+212721920+211169344+207283952+204348912
1736.91+203654832+205826576+212534368+224257936+236775216+242552288+237985088
1732.41+227274640+217479792+212457696+211615952+212141456+211972768+211072304
1727.91+210357360+210265184+210613616+211221392+212160256+213488656+215014704
1723.41+216364944+217269472+217776736+218234864+219250272+221827088+227316848
1718.91+236489376+247769168+256506608+258242176+253969504+249152208+247196352
1714.41+246706016+244964656+242055792+240114080+240301280+242185728+244836256
1709.91+247277088+248921104+250536016+253793856+259348848+266163168+272767904
1705.41+278297696+282366624+284861056+286145184+287818880+293541088+307485984
1700.91+329433696+350464512+358477984+352188448+342223840+339381632+348320832
1696.41+366811328+385385888+392893600+388452992+381496000+379810560+384009984
1691.91+391084896+399266400+408451776+418126944+427207840+435160352+441870368
1687.41+447531200+454107968+465686880+485004032+508227008+524819264+527669440
1682.91+520886976+513450848+510871104+513731936+519738656+526050368+531254368
1678.41+535925632+541381632+548822528+559535616+573563968+587109184+594438784
1673.91+594950144+594460672+598142080+605950592+615126784+624606848+635055296
1669.41+645653248+653477376+656857792+657731776+659481984+663705024+669855936
1664.91+677322368+686725696+698633856+711565888+722300864+728895424+732714112
1660.41+736581632+741866112+748159936+754796032+761306560+766950464+771499520
1655.91+776460800+784460800+797648512+816432832+836811584+847894976+839684096
1651.41+816328064+791582080+775049280+768290816+768155136+770849472+774223808
1646.91+777838080+780980672+780661184+773914048+762550784+751962496+745218560
1642.41+741159872+737803648+734718784+731535232+727384640+722607488+718323200
1637.91+714554048+711359936+710355840+711452160+709131840+697038848+676302464
1633.41+653596736+633643264+617384256+603834624+591473856+579329920+567743296
1628.91+557329152+547405632+536518528+524159584+511088832+498785728+489182080
1624.41+483433472+479853888+474293280+464115712+451001056+438840960+429942784
1619.91+423627360+418126080+413843392+413641984+418531104+423366592+420064832
1615.41+407447616+392527072+381488160+374873440+370204640+366058976+362722208
1610.91+360419488+358572960+356393728+353494304+350181344+347225568+344936672
1606.41+342821952+340567968+338696032+337588320+336683392+335385120+333972512
1601.91+332953216+332239872+331496160+330632064+329689440+328849728+328480832
1597.41+328634592+328815072+328720544+328673600+328922848+329198752+329300352
1592.91+329475264+329996576+330861312+331843360+332552864+332744576+332756032
1588.41+333217760+334344320+335955296+337890560+339886240+341516512+342725600
1583.91+343892736+345241728+346761152+348526080+350518272+352584576+354871968
1579.41+357520928+360330080+364319648+372603488+386613856+400907008+405987488
1574.91+399884416+390410976+384979200+384831808+387521632+391523904+397640224
1570.41+406377536+415113056+419432768+418060896+414379168+412351328+413398272
1565.92+417043776+422072544+426674208+429399040+430570976+432063008+436379776
1561.42+446230016+462879808+483443264+501702528+513372672+517444192+513024192
1556.92+501428224+489711584+485860864+491485920+500586880+505615904+504828352
1552.42+502166112+501871584+505257088+510783648+515685504+517993728+517691040
1547.92+516276000+515649824+517289792+521422112+526094144+528103232+526735840
1543.42+525448992+527590688+531897120+534804160+536484576+539891456+543523264
1538.92+540357760+526909312+508452416+492278688+481700320+476679648+476130784
1534.42+478391072+480424992+478649216+472085920+463410176+455676672+449625472
1529.92+444856288+441612384+439910752+438499520+436548320+435007808+434454752
1525.42+433013440+428535680+422153056+417740160+418253888+423273056+428933888
1520.92+429849280+422846016+410033600+397558880+390865600+390422400+391435360
1516.42+388949472+382738656+375454848+368740544+363366688+360149888+358282368
1511.92+355005600+349197088+343248704+339807072+339199104+341095488+346181280
1507.42+354259808+361693120+362526944+353283520+336401888+318286208+304506048
1502.92+296867104+293526304+291307776+288758464+287113696+287710624+289129056
1498.42+288748992+287202272+287857856+290792480+290795744+284083392+273831712
1493.92+265487072+260846544+258925072+259363680+262398864+266458016+268270656
1489.42+266162976+261918144+258497696+256808848+255340496+252609072+249061840
1484.92+246115200+244334544+243348192+242862496+242868144+243037904+242740816
1480.42+241847088+240918832+240487456+240770592+242261696+245522320+249711152
1475.92+252569744+253362320+254662432+259464064+267289568+274139296+276099136
1471.42+272441440+265636448+259282416+255622096+254363424+253879472+253452960
1466.92+254026304+257013920+262430576+267617680+268627392+264566464+259151184
1462.42+256252656+256167424+257396416+259727984+263687632+269128960+276481952
1457.92+286998336+298871648+305269792+301012544+289669952+278925664+272770528
1453.42+270536480+269945856+269421792+268430960+267134320+266290624+266907024
1448.92+269193728+271767616+272564448+270941440+268301776+266330528+265345184
1444.42+264596400+263587360+262708624+262586192+263135552+263572080+263277312
1439.92+262244720+261093744+261502752+265821136+274142144+281461760+281011232
1435.42+272465728+262442608+256421536+254355872+253504080+252667296+252584576
1430.92+253748848+255350400+255931968+254718016+252587408+251291408+251448672
1426.42+252105952+252582528+253489280+255256672+256963936+257464816+256750576
1421.92+255975648+257168000+262376496+271096672+278468384+279063264+273397408
1417.42+266925568+263305600+262059248+261545264+261444816+262035664+263078160
1412.92+264236624+265465664+266571632+267168160+267317264+267654784+268709728
1408.42+270376416+272116224+273636576+275287744+277492256+279776480+280923648
1403.92+280468576+279411232+278916256+279046688+279460128+280592288+282959200
1399.42+285541760+286183264+283998848+280497984+278113920+278338560+280873120
1394.92+283524000+283431680+279672800+274354240+270225344+267983328+266468608
1390.42+264633632+262727328+261958192+263194752+265519024+266272112+263624784
1385.92+258857632+254814960+252769856+251890880+251076192+250086704+249012448
1381.43+247679872+245877696+243808272+242112000+241288112+241059424+240602560
1376.93+239581248+238611488+238568720+239692880+241264256+241957392+240950160
1372.43+238946960+237475024+237035376+236840144+236447424+236391984+236892576
1367.93+237231296+236900272+236219520+235538928+234987920+235101216+236466176
1363.43+238555984+239961616+240032096+239377952+238700112+238030304+237226448
1358.93+236448432+235907744+235593568+235470976+235661360+236199760+236752816
1354.43+236860304+236446240+235873264+235474400+235331280+235495584+236082560
1349.93+236994432+237844624+238308176+238422784+238476064+238739872+239314352
1345.43+240140960+241166896+242361312+243508464+244255872+244622272+245193392
1340.93+246449024+248091008+249366832+249881872+249843808+249686256+249676736
1336.43+249814848+250033024+250506048+251573072+253263776+255189296+257043968
1331.93+258858848+260698784+262506048+264302928+266088032+267553728+268379632
1327.43+268758432+269190496+269909984+270870496+272015648+273110464+273633920
1322.93+273395968+272985568+273065184+273480032+273604128+273377408+273347200
1318.43+273693152+273902368+273615168+273206176+273143744+273280064+273249888
1313.93+273194560+273499456+274087904+274558048+274845248+275205664+275645952
1309.43+275912288+276002752+276258848+276873792+277597088+277948224+277662912
1304.93+277023328+276715040+277158592+278016416+278581824+278579200+278313824
1300.43+278164032+278265408+278583872+278988448+279302304+279533536+279920640
1295.93+280576352+281299520+281842944+282139040+282184896+282042080+281996832
1291.43+282373568+283105984+283811488+284314400+284780768+285318048+285747456
1286.93+285829824+285535424+285121792+285008928+285469056+286364832+287310112
1282.43+288043008+288489408+288585984+288306496+287821760+287392320+287126816
1277.93+286978624+286917952+286966752+287152032+287455008+287756768+287854752
1273.43+287698336+287514464+287574720+287889824+288266080+288541056+288651360
1268.93+288638688+288731968+289243904+290237824+291374720+292222144+292664128
1264.43+292973408+293493632+294221824+294819072+295132032+295549440+296543744
1259.93+297973504+299219584+299956128+300403168+300846592+301254848+301410944
1255.43+301199456+300713024+300184576+299771296+299398592+298882976+298131872
1250.93+297152320+295953536+294570272+293134816+291872512+291027008+290672192
1246.43+290546816+290294656+289945888+289832800+290001248+290043328+289604096
1241.93+288711072+287611200+286626912+286055840+285856832+285603424+285070368
1237.43+284613600+284604640+284761120+284403904+283268928+281779296+280557760
1232.93+279859712+279521664+279294496+278968192+278287296+277134688+275832192
1228.43+274827904+274002336+272792992+271041344+269228192+267809184+266804592
1223.93+266034496+265364288+264702208+264030080+263416272+262857072+262198736
1219.43+261291920+260153888+258964656+257899184+256927808+255914544+254982960
1214.93+254451840+254260992+253949232+253455376+253295216+253636096+253905008
1210.43+253670976+253304736+253393360+254056112+255042640+256068576+256869552
1205.93+257345616+257699984+258237312+259072928+260160624+261428960+262785680
1201.43+264127520+265440848+266787280+268220480+269761824+271366848+272909280
1196.94+274349792+275904096+277829472+280098176+282462016+284784416+287064928
1192.44+289256224+291333216+293489888+295975104+298749632+301588864+304471424
1187.94+307518592+310576160+313244192+315422176+317502560+319918368+322730976
1183.44+325712896+328678144+331717152+335097024+338887520+342725600+346177120
1178.94+349268192+352464896+356123008+360133280+364119040+367935552+371861952
1174.44+376129184+380418272+384219712+387590208+390987840+394587040+398407040
1169.94+402774496+407794144+412759040+416990560+420766976+424669472+428704416
1165.44+432785216+437217792+442068864+446913216+451588544+456352640+461222848
1160.94+466073184+471172928+476710816+482186272+487133600+491865536+496768640
1156.44+501609504+506217856+511089184+516705312+522849600+529009472+534994432
1151.94+540970240+547226368+553963584+561078208+568166016+574879488+581286976
1147.44+587881728+595128768+602909184+610593920+617868480+625114752+632688640
1142.94+640303040+647525568+654430464+661431040+668867520+676901888+685309760
1138.44+693391232+700641408+707467072+714698048+722553984+730552448+738187200
1133.94+745283840+752019712+758857152+766117312+773524608+780641472+787714368
1129.44+795369472+803472000+811090560+817784896+824155328+830789440+837358528
1124.94+843241024+848569216+854108480+860242240+866581952+872564800+878144832
1120.44+883721472+889544384+895363584+900683776+905289216+909431424+913523328
1115.94+917726976+921950592+926141120+930347840+934453184+938143360+941344256
1111.44+944434688+947864448+951700672+955629952+959174464+961938624+964093632
1106.94+966613376+970400704+975019456+978972224+981504896+983556544+986548352
1102.44+990736512+995146816+998783040+1001528128+1003997248+1006824832
1098.58+1010124032+1013478464+1016332352+1018448064+1020163520+1022184000
1094.73+1024890432+1027902976+1030602240+1032999744+1035576960+1038316160
1090.87+1040520256+1041795456+1042646336+1043786496+1045343616+1047056768
1087.01+1048798976+1050481536+1051853760+1052861568+1053904512+1055305728
1083.16+1056890688+1058507136+1060429248+1062726016+1064732672+1065833216
1079.30+1066333888+1066940544+1067781504+1068498880+1068870016+1068919872
1075.44+1068895424+1069353280+1070639552+1072117120+1072640384+1072074112
1071.58+1071539328+1071913280+1072844096+1073543808+1073741824+1073432448
1067.73+1072437888+1070735808+1068651456+1066229888+1062803456+1057602560
1063.87+1050544832+1042158336+1033003200+1023265792+1012737344+1001188288
1060.01+988860352+976284672+963588672+950582848+937578176+925234368+913487104
1055.51+901650688+889766144+878660672+868493504+858373120+847643584+836545152
1051.01+825488256+814506560+803431232+792088064+780533760+769301248+758879488
1046.51+748841408+738320896+727420800+717182848+708000192+698981568+689209600
1042.01+678922368+669057856+659995648+651218368+642220736+633330560+625185024
1037.52+617707008+610266048+602662592+595112320+587440256+579222016+570640576
1033.02+562368512+554699008+547562432+541088704+535377760+530044032+524691872
1028.52+519528032+514857152+510332544+505344064+499930752+494857216+490871968
1024.02+488055808+485761504+483204992+480201376+477269760+474957792+473317824
1019.52+472128128+471257952+470742400+470790400+471645248+473107968+474429920
1015.02+475171744+475950752+477859552+481326752+485883584+490679936+494927968
1010.52+498384704+501729120+506029280+511575776+517675168+523675264+529633472
1006.02+535918080+542664576+549754432+556989184+564230592+571532288+579111488
1001.52+587024960+594948096+602368192+609067392+615432640+622099200+629184384
997.02+636134272+642502976+648563648+654880768+661580160+668267328+674424192
992.52+679764480+684449216+688964480+693616192+698251712+702566080+706418240
988.02+709742656+712534016+714960256+717167040+719036288+720456064+721653504
983.52+722880832+723924800+724261760+723663616+722458688+721194816+720065344
979.02+718669056+716466624+713476864+710326464+707519296+704824128+701581568
974.52+697553856+693237376+689105664+684777216+679482304+673323136+667307264
970.02+661985088+656824896+651219840+645304448+639442880+633664576+627945344
965.52+622412736+616930112+610973248+604240512+597086336+590167296+583880448
961.02+578208384+572855744+567403008+561562624+555474752+549688896+544667392
956.52+540371072+536375808+532208544+527542816+522367744+517087936+512211488
952.02+507872480+503881664+500062144+496294432+492529248+488989728+485932416
947.52+483036384+479686944+475983648+472718240+470179776+467815680+465220704
943.02+462723584+460801408+459411296+458053920+456305280+454255584+452366048
938.52+450805216+449223392+447349792+445379648+443650816+442417536+441929760
934.02+442146400+442541408+442715008+442798976+442712608+441703040+439301984
929.52+436143776+433301184+431318400+430122816+429337248+428500096+427396640
925.02+426103424+424533056+422399328+419878816+417718112+416396352+415666336
920.52+415049312+414343968+413584512+412866336+412233600+411586688+410811744
916.02+409933024+408957600+407712288+406114560+404487168+403375168+403110560
911.52+403584064+404238432+404314848+403373056+401642240+399802400+398467552
907.02+397811584+397534944+397269120+397144288+397615808+398559968+399145376
902.52+399004896+398863008+399419968+400338080+401044096+401820832+403224992
898.02+405064960+406853152+408708064+410926272+413143744+414673088+415302720
893.52+415339712+415347552+416019744+417646560+419602112+421126912+422474240
889.02+424417408+426861664+428940320+430261568+431132352+431830240+432490176
884.52+433489344+435203360+437461664+439704992+441583552+443150080+444612992
880.02+446078208+447587104+449285504+451305824+453361088+454788960+455228352
875.52+455068128+455105984+455913760+457437984+459036256+460117344+460780832
871.02+461359040+461588576+461132608+460673792+461227296+462433056+462857248
866.52+462002464+460802688+460126432+459779648+459069632+457744352+456324288
862.02+455597088+455540224+455101664+453647072+452078496+451682080+452365408
857.52+452830560+452054528+449928160+446763936+442699072+437745728+432655488
853.03+429432096+429523488+431236608+430919872+427773984+425281760+426157792
848.53+428072544+426904608+422495040+418010720+414634496+410521216+405052224
844.03+400582880+398830464+398307616+396765824+394304288+392651936+392695168
839.53+393799584+394522112+393269056+389342464+384073216+380219104+379281760
835.03+379835488+379441120+377681984+376147520+375666944+375148576+373475424
830.53+370969856+368523424+366709568+366000128+366256768+365777760+362665536
826.03+357661600+353972544+353690688+355803520+358042496+359117824+358646368
821.53+356641472+354139200+352960512+353609056+354397408+353779072+352412992
817.03+351686432+351466144+350879520+350174624+349895712+349304160+347654336
812.53+346120896+346284416+347418624+347627808+347205504+348474656+352137376
808.03+355934272+357510240+357021856+356162656+356015552+356717536+358012288
803.53+359212800+359530176+359208640+359279104+359886368+360273408
##END=
