##TITLE=octarelline 6 front
##JCAMP-DX=4.24
##DATA TYPE=INFRARED SPECTRUM
##DATE=31/1/2005
##TIME=16:53:5
##SAMPLING PROCEDURE=film
##ORIGIN=Vincent
##DATA PROCESSING=no operation
##XUNITS=1/CM
##YUNITS=ABSORBANCE
##RESOLUTION=2
##FIRSTX=4000.283
##LASTX=800.31372
##DELTAX=-0.64282227
##MAXY=0.22894092
##MINY=-0.00095254189
##XFACTOR=1
##YFACTOR=2.1321785e-010
##NPOINTS=4979
##FIRSTY=0.003615435
##XYDATA=(X++(Y..Y))
4000.28+16956531+17497460+17553542+17188534+16545482+15798879+15313813+15388308
3995.14+15758871+15718496+14945411+13968710+13585519+13935705+14433037+14583679
3990.00+14540393+14717700+15108076+15251796+14816266+14027508+13465748+13490191
3984.86+13921281+14289743+14328989+14177265+14175921+14522540+15035670+15273570
3979.71+15036772+14627822+14406139+14276539+14018952+13855273+14144746+14701314
3974.57+15025519+15088508+15258890+15579024+15735625+15666866+15602392+15567280
3969.43+15398584+15214611+15351978+15772206+15934938+15389776+14311383+13380201
3964.28+13187859+13708597+14356987+14653624+14707917+14861270+15079824+15072853
3959.14+14878881+14819691+14922540+14866162+14547362+14228735+14078121+13981668
3954.00+13905513+14050859+14479255+14868240+14845249+14422155+13954286+13732064
3948.86+13720209+13674251+13437761+13096213+12883249+12948248+13198856+13375559
3943.71+13321666+13134826+13042329+13202033+13615217+14077997+14227512+13890845
3938.57+13454750+13555821+14312605+15173270+15618786+15644967+15430879+14937340
3933.43+14115528+13274864+12946905+13356371+14126653+14603732+14560568+14480478
3928.29+14908354+15603859+15794229+15252531+14544550+14086066+13652006+13133483
3923.14+13013616+13551054+14129954+14080442+13626096+13434340+13605318+13682318
3918.00+13392422+12941651+12749349+13071532+13718497+14171764+14235704+14376916
3912.86+15077501+16080429+16643158+16361162+15505256+14702903+14414941+14581479
3907.72+14774566+14695078+14248418+13225250+11548419+9875529+9148196+9367478
3902.57+9686323+9731946+9874798+10204460+10324526+10251557+10580302+11568321
3897.43+12778179+13725831+14299646+14589793+14791687+15197733+15780771+15850144
3892.29+14707917+12852095+11915841+12872864+14814921+16172576+16485876+16104169
3887.15+14887076+12508201+9898832+8982469+10484138+13090594+15134740+16028180
3882.00+15930533+15080803+13955998+13387291+13864074+14976965+15984371+16625165
3876.86+17019700+17102094+16617943+15604839+14591138+14273360+14910188+15780648
3871.72+15435529+13053326+9654973+7514929+8095894+10887374+14289009+16823586
3866.58+17544236+16332401+14221643+12886181+13235148+14566805+15447026+15371182
3861.43+15225133+15961980+17296522+18202302+18223984+17729890+17292116+17134294
3856.29+16530796+13770199+7933909+1080316-2795037-2092938+1165955+5003950
3851.15+9234419+13546533+16697504+18076992+18380052+18510280+18793308+19184834
3846.01+19392206+18894154+17493418+15817843+14930123+15325556+16346353+16799226
3840.86+16266437+15328858+14183745+12120766+9274055+7686751+8949057+11751842
3835.72+13791346+14748762+15707240+16816486+17130254+16279900+15110768+14727118
3830.58+15406780+16473023+17128784+17224896+17041126+16646954+16053998+15704303
3825.44+16039192+16756628+17165884+16886018+15696841+13427252+10711865+9101855
3820.29+9600691+11699093+14245728+16117262+15974705+13067133+8916377+6890031
3815.15+8809439+12899621+16223360+17679188+17953160+17897678+17777896+17621876
3810.01+17565790+17621020+17202124+15436261+12501849+10306100+10738837+13281584
3804.86+15704059+16698850+16316736+14427902+10737859+6633134+5133691+7656042
3799.72+12183419+15750184+17188044+17011010+16145899+15442378+15504889+16252240
3794.58+16972324+17118746+16805836+16497138+16508887+16819668+17139680+17182168
3789.44+16980406+16828606+16872184+16951146+16868880+16614394+16324202+16179919
3784.29+16263868+16431657+16483918+16454055+16453196+16307069+15763152+15003382
3779.15+14498331+14445388+14763558+15414854+16268763+16931310+17141762+17048226
3774.01+16852842+16565556+16224217+15811360+14967915+13467337+12013538+11852340
3768.87+13316533+15306107+16371809+15966997+14719291+13741109+13615707+14042302
3763.72+14516671+14965958+15445557+15641664+15135351+14007462+12913184+12571234
3758.58+13107334+13891823+14180076+13944506+13843539+14337547+14914591+14139246
3753.44+10748234+5386382+1092342+429459+2034327+2527788+1371137+1283425+3990522
3747.65+7988877+10796565+10745304+6989436+554902-4467458-3859244+1643653
3742.51+7521265+10931926+12148856+12397533+12371394+12239725+11777974+10624724
3737.37+8870894+7053760+5600999+4896730+5467454+7078369+8202673+7616558+6146470
3731.58+5832928+7489583+10036937+12130781+13358570+13901846+13867986+13310912
3726.44+12568181+12158626+12274412+12580518+12622663+12263298+11726566+11392386
3721.30+11526930+12013782+12431613+12539963+12531901+12717708+13181994+13805525
3716.16+14351853+14549808+14279595+13488357+11857469+9203076+6471386+5380539
3711.01+6367500+7982784+8927473+9460541+10365770+11643656+12796994+13577697
3705.87+14009662+14196949+14268469+14151103+13513533+12265007+10943156+10316228
3700.73+10714793+11808257+12896933+13474547+13622673+13750887+13971278+14007094
3695.59+13639418+12961320+12317040+12055183+12011584+11413140+9948608+8530478
3690.44+7891617+6964462+4412915+1465657+1239084+4687054+9270641+12271604
3685.30+13307491+13394378+13182360+12742751+12261588+12136154+12474854+12846231
3680.16+12681790+11918772+11123446+10707348+10082690+8096990+4592507+1253540
3675.01+332316+2507853+6497816+10288895+12035398+10772155+7432434+4657363
3669.87+4418268+6219778+8533281+10785338+12967064+14621464+15260969+15083983
3664.73+14706084+14587958+14844637+15177916+15171067+14901995+14844392+15103429
3659.59+15402621+15646068+15600678+14486469+12053838+9681565+9175635+10732489
3654.44+13106234+15125323+16068438+15457302+13430428+10768982+8184754+6113104
3649.30+5142576+5705699+7337637+9123928+10805598+12741529+14985893+16997786
3644.16+18214550+18592978+18583912+18710478+19175766+19803342+20212350+20043270
3639.02+19299302+18552548+18545932+19437314+20608810+21222106+20865390+19859366
3633.87+19145248+19518090+20699934+21445758+20643640+18076504+14428269+11147493
3628.73+9968615+11646343+15168132+18720280+21159048+22381620+22874142+23178282
3623.59+23490698+23668420+23618062+23399450+22883352+21841110+20578148+19906814
3618.45+20290334+21486616+23034494+24491268+25387836+25585394+25451886+25246966
3613.30+24793686+24223542+24306106+25266754+26017328+25439468+23935212+22961068
3608.16+23263380+24311142+25400746+26531890+28005324+29653756+30842978+31148928
3603.02+30797740+30402990+30396580+30685706+30814628+30527334+30221724+30571088
3597.88+31601530+32520970+32678876+32303124+32038688+32204700+32753394+33539070
3592.73+34338384+34956692+35415820+35742728+35649320+34894320+33838020+33160200
3587.59+33122562+33555360+34430740+35842188+37495124+38746968+39268092+39385424
3582.45+39641288+40168220+40698628+41066268+41364340+41583400+41557004+41402128
3577.31+41524792+41984164+42355880+42441912+42611124+43186192+43975408+44629536
3572.16+45075832+45425264+45715412+45850004+45646876+45000112+44084080+43324340
3567.02+43103600+43559120+44541676+45644140+46466976+47028476+47716764+48702204
3561.88+49637108+50102176+50170984+50331388+50898684+51645560+52143840+52350236
3556.74+52621068+53147380+53730536+54137812+54290796+54115744+53671076+53419056
3551.59+53892464+55027324+56232080+57049464+57430932+57549944+57642488+57886292
3546.45+58283404+58778688+59427712+60240000+61073636+61901472+62839460+63709972
3541.31+64051856+63839380+63690316+64078036+64782272+65325144+65561836+65673556
3536.17+65894240+66360024+67072200+67946408+68902000+69816080+70443368+70605120
3531.02+70458824+70407544+70746648+71403024+71978224+72124504+71976088+72006152
3525.88+72367656+72749368+73038144+73547232+74323240+74842208+74800656+74678976
3520.74+75131024+76206072+77432760+78330360+78708520+78738928+78808456+79130408
3515.59+79631296+80280048+81181056+82234904+83126400+83752368+84235024+84524800
3510.45+84531768+84610352+85328808+86705920+88108816+88926792+89034216+88757752
3505.31+88674936+89224856+90295424+91322896+91892208+92035848+92033680+92160600
3500.17+92553768+93076648+93511576+93983208+94869680+96149280+97240312+97640728
3495.02+97459616+97283368+97692560+98771040+99896760+100301896+99994312
3490.52+99745664+100092240+100827160+101519584+101992440+102259216+102511992
3486.03+103140496+104247416+105278632+105621792+105411208+105281696+105586112
3481.53+106237056+107065552+107892464+108481904+108757608+108956496+109365240
3477.03+110012000+110726912+111370912+111907248+112354400+112687872+112761520
3472.53+112431000+111892608+111760888+112535424+113960608+115184424+115670096
3468.03+115760816+116192896+117191600+118233488+118667384+118439744+118158088
3463.53+118444256+119269224+120027304+120282440+120233880+120356360+120817120
3459.03+121432864+121998792+122440312+122755960+123005624+123287424+123612480
3454.53+123866368+123993720+124129192+124434776+124862904+125238184+125588328
3450.03+126137072+126825752+127154096+126829752+126359112+126544872+127484160
3445.53+128481680+128945952+128993576+129198584+129989240+131199032+132073240
3441.03+131910400+130865368+129854664+129596000+130015112+130607504+130992888
3436.53+131103856+131195912+131719480+132845304+134091944+134749584+134648672
3432.03+134225872+133926224+133826136+133826384+133895104+134038384+134172320
3427.53+134156376+133936336+133626080+133386672+133267272+133244992+133366304
3423.03+133689488+134098536+134373600+134453744+134461648+134496928+134552176
3418.53+134613904+134646976+134558272+134356480+134219664+134260512+134379552
3414.03+134541536+134976576+135827472+136795216+137358544+137254128+136622416
3409.53+135865392+135484384+135812448+136697456+137536864+137767152+137317104
3405.03+136616704+136213088+136363664+136895584+137405440+137598304+137495040
3400.53+137391520+137556480+137864736+137818752+137096864+135972336+135035632
3396.03+134618560+134631664+134821184+135038976+135366576+135931824+136500512
3391.53+136532048+135910688+135258384+135135504+135325200+135321424+135065840
3387.03+134778128+134484992+134120464+133742888+133401440+133091280+132917088
3382.53+132998992+133276624+133611320+133874744+133881240+133615456+133500088
3378.03+133887456+134418192+134524416+134317824+134265424+134281120+133955784
3373.53+133428408+133293584+133791504+134644128+135470512+135973232+135936128
3369.03+135375920+134619888+134052768+133778400+133498400+132808744+131747976
3364.53+130883488+130630920+130747432+130790152+130760384+130951976+131435592
3360.03+131977896+132227256+131896544+131074200+130341264+130230720+130605944
3355.53+130866024+130716752+130445440+130462408+130764512+130958064+130829904
3351.03+130723864+131053368+131582200+131668200+131147344+130436248+129847528
3346.53+129397024+129154848+129151888+129048784+128507536+127793608+127505872
3342.03+127832920+128378624+128598976+128271160+127746424+127695240+128319920
3337.53+129009480+129126016+128834216+128655616+128572720+128199296+127597504
3333.03+127265488+127396144+127660336+127697568+127440608+126984560+126493080
3328.53+126263656+126594224+127405064+128170712+128396072+128101536+127701432
3324.03+127510792+127560936+127780920+128086672+128299104+128237816+127915640
3319.53+127501480+127146728+126982096+127101624+127347032+127312144+126838408
3315.03+126291808+126091352+126218200+126498624+127018272+127839368+128582696
3310.53+128749240+128306472+127593120+126896696+126469304+126666712+127609400
3306.03+128844440+129687728+129779608+129160928+128104376+127094256+126655976
3301.54+126918272+127501360+127939560+128041416+127835104+127458968+127158864
3297.04+127159520+127428608+127654256+127507048+126954440+126367776+126235376
3292.54+126655856+127199584+127386464+127114160+126546432+125888192+125409632
3288.04+125329320+125490976+125436488+124946024+124224432+123510192+122842872
3283.54+122270536+121937040+121862936+121824656+121571928+121148608+120909232
3279.04+121048496+121122192+120430552+119004576+117693824+117023016+116557712
3274.54+115804008+115036296+114708624+114684224+114604720+114467056+114288928
3270.04+113777912+112841328+111952000+111492736+111127424+110294192+109034376
3265.54+107881712+107098184+106462832+105783304+105226720+104962104+104718232
3261.04+103991744+102679504+101259400+100217608+99488392+98659536+97620728
3256.54+96744504+96400792+96476400+96473728+95994392+95073080+94093192+93426280
3251.40+93109056+92881840+92544624+92187896+91989488+91889024+91613944+91000664
3246.25+90189472+89526768+89320376+89582336+89920704+89775688+88887992+87543744
3241.11+86302080+85494912+85025752+84650344+84296648+83998168+83674304+83246280
3235.97+82903328+82899032+83064560+82890432+82225920+81530672+81254344+81241704
3230.82+81003552+80387144+79686960+79220280+79066176+79214848+79591776+79869408
3225.68+79642024+78971000+78422208+78344744+78423968+78128632+77245368+75897192
3220.54+74457344+73478504+73258624+73515760+73829816+74177800+74615384+74841968
3215.40+74600144+74113088+73714136+73441368+73275240+73195704+72894688+72108528
3210.25+71303184+71251264+71857616+72180608+71708336+70947784+70593936+70631136
3205.11+70497664+69890464+69127560+68680480+68565592+68469168+68284728+68141232
3199.97+68051976+67961608+67955824+68028504+67895328+67397936+66768076+66212400
3194.83+65634680+64982176+64420856+64064004+63894248+63922308+64071896+64133040
3189.68+64113744+64268856+64510324+64317340+63515200+62616724+62136896+62068060
3184.54+62189340+62402392+62573028+62484764+62136772+61822876+61791844+61963672
3179.40+62062672+61945524+61690480+61416568+61182720+61092776+61241776+61468992
3174.26+61457732+61192108+61002952+61056248+61169712+61212124+61265052+61326108
3169.11+61255040+61080636+60995444+61088768+61357756+61831640+62381616+62639128
3163.97+62426932+62056292+61900224+61888832+61715632+61338992+61019716+60943780
3158.83+61018584+60979552+60636952+60112580+59823372+60069940+60660964+61106284
3153.69+61145568+60905000+60623440+60467604+60519380+60640696+60493620+59978788
3148.54+59509212+59481588+59642724+59409460+58684592+57962604+57657220+57683076
3143.40+57669332+57375984+56893404+56496316+56289364+56082320+55734292+55418268
3138.26+55315596+55242116+54883764+54229952+53525872+52995848+52806332+53018900
3133.12+53339168+53226876+52540960+51791256+51530628+51753400+52063008+52159664
3127.97+51961752+51527392+51061628+50827728+50866192+50938264+50818768+50500508
3122.83+50103668+49733024+49496920+49504380+49761760+50122460+50383780+50411780
3117.69+50183924+49773088+49292668+48867836+48600740+48522536+48597756+48775688
3112.55+48958116+48938220+48556848+47960004+47491704+47309280+47321084+47470696
3107.40+47717508+47714528+47007976+45739748+44770384+44827348+45716036+46517532
3102.26+46509208+45823804+45224288+45204920+45442396+45310928+44776964+44434212
3097.12+44715404+45400684+45916808+45894584+45465612+45125356+45169172+45252340
3091.98+44779568+43797768+43075576+43138072+43632052+43946004+44064852+44398476
3086.83+44945012+45141740+44649012+43896508+43570776+43774692+44034336+44023664
3081.69+43878768+43749140+43458408+42838872+42113308+41691948+41743872+42148636
3076.55+42694308+43107572+43110420+42705712+42266140+42129296+42236016+42335304
3071.40+42329480+42268248+42226476+42291052+42436208+42401248+42028904+41637552
3066.26+41598268+41665308+41294712+40525112+39926652+39820920+40076468+40475204
3061.12+40745568+40548392+39941632+39508712+39577540+39740324+39531488+39142964
3055.98+39038264+39237768+39359804+39154224+38711328+38253676+37892860+37629668
3050.83+37537664+37743328+38129600+38318752+38113772+37683836+37210472+36737832
3045.69+36441672+36572196+37035892+37475088+37708700+37733184+37469772+36981492
3040.55+36630044+36596420+36578748+36301888+35888896+35452392+34851960+34183556
3035.41+33978496+34501492+35247080+35498100+35174200+34838004+34953732+35378388
3030.26+35657844+35628684+35512056+35513788+35663896+35970696+36379132+36642772
3025.12+36578128+36343784+36170272+36021852+35808824+35672048+35752856+35942648
3019.98+36084136+36156552+36163716+36136408+36227984+36520904+36828940+36956152
3014.84+36968640+36925496+36643636+36035820+35441272+35299704+35657720+36206480
3009.69+36637092+36832900+36819664+36664284+36451808+36340572+36526584+37017848
3004.55+37524676+37742584+37695836+37629300+37641416+37622004+37533088+37536920
2999.41+37776344+38178348+38580416+38951264+39349532+39729184+39959956+39990044
2994.27+39865740+39692788+39700960+40141472+40910676+41511536+41633208+41526276
2989.12+41583152+41873992+42299360+42816684+43287132+43511988+43662192+44224896
2983.98+45274804+46222052+46553676+46464368+46458656+46692924+47018660+47423352
2978.84+48057704+48898800+49691720+50231464+50493040+50552536+50588876+50937268
2973.70+51844316+53132172+54332940+55160412+55672160+56025040+56321572+56630996
2968.55+56934104+57129872+57259728+57564300+58167968+58903524+59597344+60285640
2963.41+60981936+61457856+61505780+61294324+61234392+61548200+62068936+62466364
2958.27+62542984+62289360+61793216+61189356+60625192+60165852+59822996+59693856
2953.13+59849004+60021804+59738488+58925896+58041304+57498740+57307180+57358252
2947.98+57613384+57908144+58001084+57912016+57872924+57972224+58126500+58322380
2942.84+58579756+58832916+59060992+59329088+59541088+59516964+59385336+59510220
2937.70+59970412+60524516+61033852+61468116+61646176+61477248+61253912+61198864
2932.56+61035980+60531384+60057560+60035552+60214368+60116708+59832132+59790872
2927.41+60058816+60391944+60677728+60857096+60709492+60116204+59348964+58793932
2922.27+58532152+58353616+58020064+57389348+56473716+55531552+54957728+54897608
2917.13+55059256+55053016+54797960+54406756+53794112+52813932+51746684+51202676
2911.98+51396032+51846552+51930992+51463768+50679112+49921136+49405612+49091556
2906.84+48793596+48464096+48164360+47790968+47190860+46512316+46034776+45740864
2901.70+45526816+45596224+46072040+46499764+46396308+46044720+46087308+46549948
2896.56+46863736+46654168+46056760+45388392+44831200+44375652+43924420+43465848
2891.41+43088220+42822260+42694436+42870120+43405448+43941040+44061004+43841052
2886.27+43626220+43462996+43197720+42919096+42870120+43088096+43426404+43741076
2881.13+43929996+44001708+44116836+44338172+44427140+44175516+43755592+43502432
2875.99+43508760+43619764+43671864+43628700+43590368+43662312+43730288+43527740
2870.84+43017048+42470048+42088272+41797532+41437936+40904360+40183820+39507100
2865.70+39247424+39398924+39452020+39091600+38647232+38522392+38575596+38479340
2860.56+38289684+38225728+38168076+37829656+37208372+36533504+35953644+35575064
2855.42+35567532+35903476+36214632+36224776+36086364+36021356+35976628+35927448
2850.27+36089696+36427704+36425360+35797956+34996712+34595464+34618556+34808612
2845.13+35016720+35031420+34545576+33616828+32734886+32245154+32075690+32039674
2839.99+32012296+31840382+31466392+31081002+30892650+30865286+30845810+30738086
2834.85+30455612+29996120+29612858+29606082+29893368+30080888+29972586+29753170
2829.70+29662134+29697486+29659546+29369460+28834234+28265914+27932950+27987352
2824.56+28372276+28850858+29149368+29177202+29103184+29143210+29331276+29547940
2819.42+29687264+29674202+29437576+29012424+28615926+28494528+28679336+28946910
2814.28+29015008+28775992+28380896+28082008+28004216+28115982+28325004+28491574
2809.13+28402808+28015540+27690244+27859100+28442574+28930532+29068210+29074490
2803.99+29109344+28995922+28625528+28202642+27908578+27673876+27426282+27289204
2798.85+27405116+27745010+28070192+28013940+27391950+26557596+26150754+26360438
2793.71+26787742+27119782+27497160+28044220+28510904+28612108+28391732+28062066
2788.56+27755962+27549338+27516110+27672030+27956210+28263946+28459442+28448730
2783.42+28305798+28255944+28462150+28854676+29202452+29347292+29327090+29245556
2778.28+29121658+28983854+29003434+29299010+29664840+29777934+29646978+29585758
2773.14+29802572+30242796+30733526+31054252+31017394+30727116+30568374+30737592
2767.99+31026760+31219072+31424718+31805484+32291778+32766472+33245102+33680884
2762.85+33872092+33777164+33700636+33956400+34489636+35004120+35379500+35789184
2757.71+36375056+36938228+37110696+36850576+36557984+36587028+36833764+37014008
2752.56+37143084+37495368+38210012+39168332+40143820+40914028+41366568+41653536
2747.42+42070428+42690964+43288000+43694192+44019816+44469332+45124112+45933952
2742.28+46787332+47629520+48551384+49621564+50647628+51360300+51857260+52554788
2737.14+53625332+54795212+55762740+56565336+57455532+58599248+59927020+61213744
2731.99+62334540+63430408+64726244+66233604+67774328+69227920+70584264+71859880
2726.85+73139064+74592464+76300224+78151200+80004136+81848624+83740712+85691552
2721.71+87680248+89706288+91811936+94062544+96466856+98940032+101406904
2717.21+103897336+106418048+108845592+111106392+113380864+115920424+118724776
2712.71+121598464+124491432+127549288+130839872+134229392+137563104+140825408
2708.21+144099568+147471968+151003840+154691136+158460320+162243104+166017616
2703.71+169743712+173362800+176946112+180685504+184604592+188469248+192145440
2699.21+195877328+199995168+204463744+208925328+213150000+217254864+221475360
2694.71+225841600+230186368+234433776+238722256+243124576+247418400+251393648
2690.21+255289744+259603520+264465632+269514304+274400704+279105760+283710368
2685.71+288169696+292477504+296830944+301436128+306243072+310973536+315399616
2681.21+319551168+323696064+328122240+332861536+337614080+342034592+346099808
2676.71+350110368+354333760+358803776+363449216+368197792+372940256+377605248
2672.21+382303936+387140576+391875040+396105760+399883584+403807072+408349728
2667.71+413370528+418411328+423177088+427560192+431497344+435138592+438977088
2663.21+443485280+448598208+453770496+458554880+462963424+467245504+471532608
2658.71+475792960+480024832+484369600+488995904+493862880+498658624+503068512
2654.21+507079168+510932160+514861120+518987488+523371072+527959904+532578336
2649.71+537107328+541616960+546234624+550994880+555829504+560555776+564924416
2645.21+568903424+572852032+577173440+581870528+586612672+591100992+595239360
2640.71+599155072+603176896+607616448+612480320+617511488+622442624+627098560
2636.21+631417408+635522496+639620864+643780928+648001600+652390208+656960576
2631.71+661429056+665615488+669813376+674375168+679169856+683832256+688260992
2627.21+692548800+696715904+700806464+704958976+709214592+713515840+717884992
2622.71+722313984+726572416+730468032+734205504+738176768+742489664+746937920
2618.22+751319616+755564928+759662528+763632320+767540672+771478400+775527296
2613.72+779701312+783889152+787929280+791791552+795579392+799362560+803141184
2609.22+806974016+810988032+815166272+819282752+823137600+826782080+830420800
2604.72+834140608+837852032+841439488+844877632+848209152+851507904+854860800
2600.22+858342016+861966272+865626688+869058880+872042560+874745088+877655616
2595.72+881010432+884494528+887724480+890745984+893799744+896881216+899843200
2591.22+902723328+905684416+908747520+911758528+914561152+917151360+919757184
2586.72+922642944+925736576+928614336+931031104+933225856+935557056+938063680
2582.22+940560000+942926208+945168768+947360576+949628352+952066368+954593600
2577.72+957000512+959177920+961254208+963483712+965964864+968465408+970586816
2573.22+972137280+973303552+974486848+976052288+978119616+980414784+982451264
2568.72+984047232+985509632+987111808+988671360+989949056+991163904+992697536
2564.22+994510528+996269632+997892672+999592192+1001419392+1003073728
2560.36+1004237312+1004954304+1005633728+1006648192+1007972608+1009307520
2556.50+1010540416+1011873984+1013435264+1015016256+1016325376+1017312832
2552.65+1018151808+1019027520+1020007296+1021012224+1021940096+1022851008
2548.79+1023930880+1025209984+1026470592+1027496064+1028283584+1028990656
2544.93+1029801536+1030807488+1031908608+1032881792+1033647552+1034350336
2541.08+1035129984+1035985472+1036916864+1037975040+1039103552+1040147072
2537.22+1041043200+1041831296+1042496960+1043006016+1043481088+1044142272
2533.36+1045081856+1046206912+1047369728+1048444032+1049334016+1050043200
2529.51+1050723072+1051538944+1052481792+1053390848+1054185856+1054950976
2525.65+1055755328+1056515968+1057128320+1057613696+1058066560+1058587328
2521.79+1059285952+1060186816+1061119744+1061895104+1062593792+1063438144
2517.93+1064365632+1065024768+1065256960+1065342272+1065693568+1066458752
2514.08+1067464000+1068410112+1069082112+1069449856+1069681408+1070014720
2510.22+1070547968+1071139072+1071574656+1071802112+1071935424+1072096768
2506.36+1072358400+1072717632+1073016512+1073038976+1072858880+1072859200
2502.51+1073218560+1073634880+1073741824+1073556864+1073347008+1073263360
2498.65+1073243200+1073099200+1072718720+1072244928+1071898304+1071554112
2494.79+1070839616+1069765376+1068836288+1068365504+1068105600+1067716928
2490.94+1067195072+1066667584+1066106304+1065400768+1064521408+1063548800
2487.08+1062612992+1061754048+1060836864+1059734080+1058544448+1057395456
2483.22+1056111552+1054384704+1052319424+1050464512+1049173440+1048183680
2479.37+1046996032+1045476160+1043843392+1042225344+1040552896+1038833216
2475.51+1037165056+1035483840+1033626688+1031656128+1029797632+1028074176
2471.65+1026294144+1024372736+1022388992+1020371776+1018263040+1016103040
2467.79+1014068480+1012277760+1010598400+1008714176+1006470848+1004083392
2463.94+1001862848+999837888+997841792+995795712+993645056+991266752+988737600
2459.44+986421056+984479552+982569728+980326272+977867904+975592320+973711424
2454.94+972092800+970369728+968233536+965816640+963622784+961830976+959980416
2450.44+957653696+955153536+953090624+951542144+950060864+948367808+946624256
2445.94+945018112+943447296+941733184+939903936+938074944+936217280+934268736
2441.44+932380416+930803584+929545728+928369216+927107968+925780480+924411520
2436.94+922983808+921566336+920258816+918983296+917555904+916008960+914614528
2432.44+913516096+912539456+911460544+910276864+909119744+908078976+907175552
2427.94+906376512+905588928+904760960+903942336+903154304+902320832+901434240
2423.44+900593600+899782592+898874304+897926336+897166016+896612416+896051008
2418.94+895406336+894773760+894102528+893236864+892258624+891401408+890668544
2414.44+889868544+888984768+888186624+887506624+886792512+885988032+885204992
2409.94+884474112+883674112+882797440+882036096+881404480+880568512+879351616
2405.44+878132288+877351104+876865728+876201024+875181632+873938880+872588928
2400.94+871265536+870161984+869256512+868277504+867125056+865980992+864905152
2396.44+863699648+862249152+860690944+859219904+857922624+856730496+855459264
2391.94+854033088+852628416+851392128+850144832+848633472+846886400+845077056
2387.44+843267456+841488064+839785408+838042880+836053248+833887424+831873920
2382.94+830167744+828617152+827024064+825268288+823247744+820994432+818776384
2378.44+816828672+815038720+813070400+810765952+808286016+805904192+803774400
2373.94+801868224+800029440+798042304+795753600+793227136+790727296+788435392
2369.44+786229056+783893696+781454336+779097344+776820544+774425920+771856512
2364.94+769301248+766899072+764551424+762048128+759256640+756232576+753286144
2360.44+750825088+748919040+747116544+744916608+742339712+739809792+737585088
2355.94+735547840+733507072+731457984+729494272+727599680+725619776+723455040
2351.44+721209920+719029504+716818304+714325696+711522240+708671424+705963840
2346.94+703326656+700637632+697915968+695238976+692665024+690226240+687862144
2342.44+685421312+682883968+680452544+678245120+676036544+673527872+670762624
2337.94+668053696+665574144+663230208+660913344+658628608+656343424+653957056
2333.44+651502208+649141888+646872192+644478720+641899072+639391872+637155072
2328.95+635017600+632672768+630056064+627380736+624929984+622832384+620922688
2324.45+618867840+616512192+614001920+611542464+609206144+606989376+604837184
2319.95+602595712+600153024+597606016+595139776+592829504+590655808+588567616
2315.45+586447488+584190144+581861952+579635968+577539840+575421760+573147328
2310.95+570736064+568345984+566150656+564151424+562155904+560013760+557777728
2306.45+555528576+553201152+550711488+548096000+545433728+542805312+540345984
2301.95+538168192+536182080+534137760+531893792+529552608+527321408+525249952
2297.45+523156960+520885408+518559552+516389568+514293920+512033792+509654816
2292.95+507419744+505329888+503120288+500728032+498379840+496202688+494065280
2288.45+491815456+489475968+487226144+485246176+483467008+481513664+479093952
2283.95+476381344+473799808+471534592+469477312+467494912+465518336+463488192
2279.45+461398080+459276224+457083808+454792608+452544672+450505760+448614560
2274.95+446700256+444749632+442835488+440890496+438805408+436645088+434555616
2270.45+432536992+430478848+428339552+426178880+424076960+422088288+420237632
2265.95+418513472+416868384+415221472+413445632+411438624+409239584+407026720
2261.45+404935520+402923840+400877824+398813472+396872608+395122400+393448352
2256.95+391675520+389718176+387600320+385432640+383379424+381539616+379839232
2252.45+378137824+376417856+374730880+373030368+371209472+369258016+367283776
2247.95+365422848+363778528+362295104+360704672+358798016+356746176+354926784
2243.45+353448224+352075296+350575136+348914656+347167584+345417408+343694048
2238.95+341926752+340053824+338177600+336459040+334893184+333353216+331773088
2234.45+330134432+328414944+326698752+325133376+323671712+322079264+320295616
2229.95+318543136+316995264+315561472+314053440+312403392+310703840+309156832
2225.45+307891808+306740512+305314368+303432672+301369984+299574304+298235680
2220.95+297191968+296140800+294874272+293355360+291675168+289975200+288379072
2216.45+286941728+285624640+284324448+282938784+281450752+279975488+278669568
2211.95+277532576+276351584+274924352+273274848+271572448+269935200+268399856
2207.45+266994096+265733984+264579712+263427872+262148976+260728480+259364224
2202.95+258266928+257320448+256181168+254750064+253293472+252033840+250910240
2198.45+249777232+248568064+247247872+245873200+244636064+243628064+242644192
2193.95+241458928+240163424+239017536+238084208+237188288+236130608+234840128
2189.45+233400032+231977520+230668160+229425312+228179920+226939376+225734992
2184.95+224581744+223526160+222607776+221743776+220779104+219664336+218508160
2180.45+217448720+216519952+215619936+214622128+213542848+212510192+211530912
2175.95+210435328+209177424+207997216+207123808+206465904+205726512+204699584
2171.45+203374912+201907392+200543552+199443568+198527936+197628352+196763136
2166.95+196105616+195668544+195185200+194359744+193175536+191909424+190864352
2162.45+190096000+189432608+188677408+187720672+186548432+185303344+184260448
2157.95+183528176+182834000+181839904+180633216+179621504+178964336+178371904
2153.45+177546736+176581568+175775680+175207584+174676944+174045568+173422688
2148.95+172916576+172368560+171533424+170429200+169314480+168364032+167560976
2144.46+166843488+166165376+165425632+164526608+163529424+162637808+161975952
2139.96+161445216+160846144+160121824+159412224+158840400+158341968+157768592
2135.46+157085792+156351408+155588448+154800784+154042480+153361280+152725600
2130.96+152073504+151381472+150655648+149914848+149230736+148705792+148355776
2126.46+148058352+147632912+146989088+146185696+145330848+144465392+143614368
2121.96+142896832+142429360+142134096+141780144+141252032+140658352+140162816
2117.46+139799712+139467136+139038400+138469408+137820960+137155536+136439744
2112.96+135611680+134742176+134020880+133561928+133266632+132905168+132348256
2108.46+131711592+131226352+130940976+130645168+130161336+129575168+129063016
2103.96+128601296+128027592+127312520+126595128+125977304+125440880+124960872
2099.46+124568488+124278240+124040168+123767680+123375000+122825976+122182616
2094.96+121558384+121009080+120528312+120111272+119740544+119342864+118881528
2090.46+118423016+117999464+117509264+116891720+116283520+115861824+115631536
2085.96+115486488+115331912+115063288+114603696+114041504+113547224+113111856
2081.46+112589584+112026264+111663672+111531840+111310904+110739088+109945120
2076.96+109261216+108858400+108661048+108443496+107952104+107113280+106206232
2072.46+105644944+105512088+105510808+105412360+105275560+105152448+104908792
2067.96+104463000+103944600+103472440+103007168+102507264+102033408+101602400
2063.46+101126192+100558136+99972504+99486608+99175056+99033584+98965776
2058.96+98868288+98722880+98559888+98363160+98108728+97827456+97537432+97165696
2053.82+96658064+96099384+95629552+95237432+94752280+94070800+93326504+92778920
2048.67+92548304+92542464+92610688+92669384+92673328+92546144+92173928+91468792
2043.53+90502816+89575728+89020144+88871880+88829144+88587944+88164472+87815992
2038.39+87686712+87618904+87390264+87039256+86763952+86537688+86129712+85527336
2033.25+85027656+84848536+84916392+85035872+85019928+84717296+84187200+83726928
2028.10+83511768+83403504+83256656+83095920+82858576+82368384+81731600+81345176
2022.96+81334056+81336584+81015808+80479464+80062968+79873824+79705152+79334008
2017.82+78828264+78489456+78469904+78578040+78514944+78172656+77662176+77208552
2012.68+77010968+77040216+76995200+76625312+76046520+75572840+75327680+75199440
2007.53+75076984+74943976+74788048+74573704+74305984+74044096+73825040+73617840
2002.39+73385112+73156304+72986296+72826368+72536992+72066520+71562344+71246352
1997.25+71205256+71312240+71342296+71160864+70802080+70348984+69817088+69256176
1992.11+68867336+68808064+68888816+68724680+68224976+67700648+67429184+67377496
1986.96+67426936+67580040+67797296+67886288+67725872+67399952+67036180+66735212
1981.82+66644260+66792168+66902072+66684404+66237860+65840696+65510184+65136348
1976.68+64854456+64885544+65136728+65309344+65262468+65058892+64790164+64505680
1971.54+64196436+63813192+63370540+62957912+62570772+62112996+61632412+61344992
1966.39+61382656+61697736+62148040+62513060+62558504+62285852+61952788+61741040
1961.25+61603128+61473376+61366264+61245776+61079760+60992192+61097280+61239272
1956.11+61124424+60655832+59995540+59399832+59078116+59086488+59267840+59374212
1950.97+59275216+59034868+58803680+58682844+58635364+58517284+58229180+57869552
1945.82+57664968+57704180+57763384+57501364+56883788+56324064+56261284+56654592
1940.68+57073064+57232756+57250736+57353632+57515724+57497120+57218276+56970308
1935.54+57108396+57562308+57884040+57814216+57549816+57353260+57204044+56983672
1930.40+56708136+56396460+55978744+55503600+55191604+55146572+55228396+55305740
1925.25+55367616+55304244+54905716+54243916+53772420+53843344+54342292+54867544
1920.11+54977308+54305388+52950244+51807200+51869344+52988124+54010520+54261248
1914.97+54139184+54177584+54312116+54322220+54289920+54308128+54249648+54046676
1909.82+53834376+53711712+53649764+53639168+53677808+53661728+53481376+53193236
1904.68+52988624+53026996+53299792+53613868+53750108+53670952+53514900+53406216
1899.54+53342528+53244076+53068868+52913612+52930560+53096904+53186996+53095660
1894.40+52981268+52991368+53083696+53177904+53171676+52784776+51855020+50798728
1889.25+50318816+50618624+51290200+51922772+52394212+52666164+52708652+52584812
1884.11+52415264+52323456+52444540+52763472+52978152+52800352+52367180+52096636
1878.97+52183080+52470452+52749144+52937780+52995472+52860156+52553668+52248224
1873.83+52145092+52288332+52526884+52601136+52204876+51147528+49682764+48558220
1868.68+48405784+49112080+50066712+50862708+51456168+51859252+52037472+52051304
1863.54+52066620+52197156+52408036+52569364+52630656+52707528+52893920+53076476
1858.40+53123952+53113852+53163572+53214672+53197100+53200460+53302904+53429900
1853.26+53491216+53470276+53370448+53239720+53162200+53087192+52839224+52401940
1848.11+52037472+52021036+52218208+51862368+50074924+47150236+45070744+45689708
1842.97+48361524+50785280+51828744+52105728+52364320+52616080+52688468+52593904
1837.83+52357968+52092904+52045816+52248096+52448028+52488640+52390724+52184076
1832.69+51931612+51613560+50875776+49537096+48370972+48506372+49920396+51447080
1827.54+52179216+51985044+51073336+49956844+49478624+50037096+51069972+51827376
1822.40+52197772+52474808+52783404+53001328+52965944+52634644+52152812+51705208
1817.26+51333900+51054280+51038848+51389676+51866476+52110584+52018172+51707572
1812.12+51304272+50950460+50884116+51314600+52140976+52894044+53134540+52953604
1806.97+52847944+53075472+53436628+53685160+53698500+53293928+52405304+51392300
1801.83+50669404+50164140+49644572+49298896+49472780+50082016+50711352+51047184
1796.69+51024904+50852624+50827480+50686080+49497788+46949956+44425656+43838080
1791.55+45392988+47601804+49313820+50462180+51159108+51325808+51162716+51015072
1786.40+50764000+50147472+49538840+49588476+50212920+50712968+50699276+50284724
1781.26+49718972+49343172+49454996+49880952+50190396+50379304+50635676+50682104
1776.12+50257096+49762760+49305608+47783260+44426896+40736400+39397436+41222356
1770.98+44519216+47214968+48195692+47442112+46171628+46148904+47834588+49850596
1765.83+50818892+50765992+50393484+49783536+48407528+46255712+44538824+44782544
1760.69+46977408+49368796+50451108+50231960+49369416+48271144+47552220+48040676
1755.55+49545180+50860464+51420940+51461272+50543452+47901956+44608556+43344432
1750.41+45027176+47610508+49086708+49503628+49765244+50217276+50788768+51320704
1745.26+51469124+51042960+50508732+50651980+51672336+52722232+52452012+50413644
1740.12+48053600+47599692+49485596+51965368+53507300+53765688+52186068+47756540
1734.98+41057960+35444112+34716488+39289256+45867392+50789764+52575716+52121920
1729.83+51444964+51860996+53095040+54148908+54563876+54575724+54474092+54247032
1724.69+53830264+53408212+53311624+53699496+54385940+54931656+54888380+53928616
1719.55+51713804+47994812+43552044+40813688+41879320+45539356+48589796+49916284
1714.41+51052788+53148748+55409784+56826736+57406828+57389848+56949336+56780668
1709.26+57558064+58795552+59356960+58869156+57935252+57358000+57542448+58359860
1704.12+59576840+61248280+62763580+61839152+56471712+48586068+44364360+48345864
1698.98+57765500+66100032+69204056+66675376+61600500+59757364+64977412+74422592
1693.84+82440072+86998336+89761728+92439296+95118112+97692184+100761200
1689.34+104519616+108382152+112163512+115958864+118458536+117456000+113115840
1684.84+109615952+111751656+119546912+128969104+136969472+142954400+147441168
1680.34+151249664+155187248+159598272+164272960+168614576+171597472+172372544
1675.84+171864288+173143504+178590816+186730720+193909040+198506112+201803920
1671.34+205256224+208398064+210389152+212464800+217020928+224385888+232327888
1666.84+238849744+243849872+248144944+252061056+255312016+257963616+261160544
1662.34+266348784+273462976+280783552+286979168+292235200+297228896+302135168
1657.84+306887616+311386944+315167072+317475808+317483264+314235296+307874144
1653.34+302155488+303710272+314762336+329169952+339900448+345110080+346431040
1648.84+345847584+344538880+342942496+341385344+341126656+344001472+349800864
1644.34+355450144+358396256+359118016+359459840+360078240+360636960+361121056
1639.84+361369696+360473792+357994400+354533856+350085888+343587968+335663936
1635.34+330020192+329351808+331179488+331087328+327646752+322171680+316009344
1630.84+309525920+302617120+294927168+286144320+276774496+268031472+260607344
1626.34+254038496+247220176+239177248+229943088+221096416+214529200+210232048
1621.84+206392928+201705808+196347584+191021440+185828240+179759024+171447440
1617.34+161572432+154227392+153148432+156307616+158487232+157730704+155666560
1612.84+153728496+151776432+149690496+147908992+146493696+145170976+143968112
1608.34+142953488+141956912+140980096+140202848+139516784+138731648+138012192
1603.84+137526608+137085440+136564752+136142864+135867328+135567296+135247728
1599.34+135004208+134717808+134314976+134021520+133959288+133902104+133720328
1594.84+133604960+133681328+133876944+134218224+134821696+135621152+136387552
1590.34+136932464+137204640+137449184+138180944+139621056+141329968+142777792
1585.84+143931232+144929408+145701184+146276080+146919024+147731456+148670112
1581.34+149877872+151361584+152730576+153858768+154895088+154919056+152204720
1576.84+147259088+144390192+147591792+155075744+161759568+165383088+167176896
1572.34+168643872+169506192+168706912+166488688+164864624+165808704+169127024
1567.84+172892496+175564992+176795536+176917360+176619984+176704048+177437584
1563.34+178321136+178497504+176808256+172016880+164258240+156140224+150884976
1558.84+149425760+151284960+156594992+164112016+169802144+170524368+167546736
1554.34+165255488+166556768+170285568+173445808+174282112+173037360+171248704
1549.84+170424720+170802928+171454048+171466192+170436576+168071408+164409984
1545.34+160586832+158081120+156469904+153435888+147970368+142062880+137803536
1540.84+134010504+128542720+123098080+122351744+127385928+133741464+137142176
1536.35+136991168+134508080+130408168+125309320+121086120+119852968+121408376
1531.85+123371784+124060296+123658400+122704648+121139080+119238328+117894232
1527.35+117158800+115921584+113817712+112126056+111918264+112302840+111400520
1522.85+108316720+103848528+100142360+99611552+102955200+107999992+111398992
1518.35+111577760+109932432+109205240+110553864+112869432+114858400+116061032
1513.85+115987264+114271728+111903896+110600272+110598352+110538880+109474384
1509.35+107404928+104138432+99257024+93408744+88796936+87967976+91795040
1504.85+98442408+104696368+108470640+109865792+110221408+110636672+111182160
1500.35+111143960+110182312+109235992+109372536+109765592+108726992+106960496
1495.85+107473520+111336928+116088280+119409928+121292280+122241392+121945552
1491.35+120513616+119436960+120272264+122934176+125920744+128014928+129457816
1486.85+131494784+134779680+138598064+141928400+144592320+146932720+149037520
1482.35+150848624+152664624+154979984+157978128+161421280+164851200+167694368
1477.85+169508960+170568464+172017264+174792832+178285776+180852528+181782416
1473.35+182151360+183766656+187660096+193469904+199740976+204884464+208358256
1468.85+210842320+213105920+215066784+216122752+215959424+215067632+214885888
1464.35+216806064+220375648+223607584+225563424+227047408+228507904+229143904
1459.85+228615184+227508368+225505376+221629936+217395760+217112912+222666128
1455.35+230563344+236578096+239754208+241113536+241396608+240986592+240570784
1450.85+240699216+241108608+241058352+240185424+238904752+238117360+238387584
1446.35+239337152+240090352+240244832+240071072+239800384+239216176+238150784
1441.85+236904304+235797056+234710016+233404640+231715088+228981936+224235296
1437.35+217978432+213097040+212128352+213777840+214549968+212955088+210139200
1432.85+207522368+205292896+202905296+199897248+196307200+192871216+190369760
1428.35+188527584+186395824+183773040+181150432+178480288+175282208+171773920
1423.85+168678960+166199504+164102544+162091104+159226192+154268096+147810832
1419.35+142947744+142080048+143882112+145410496+145564112+145026016+144455616
1414.85+143959520+143551312+143169152+142577792+141718448+140851952+140156304
1410.35+139548000+138999920+138672928+138640416+138700352+138496944+137721840
1405.85+136364976+134991888+134480720+135070112+135927296+136092400+135472832
1401.35+134406128+132756000+130288176+127591056+125613128+124390648+123177272
1396.85+121577840+119617080+117222840+114628232+112803224+112388784+112647712
1392.35+112390840+111337824+109942304+108463600+106719192+104384536+101375520
1387.85+98323152+96440512+96264216+96911808+97213568+96927584+96386280+95743320
1382.71+95071296+94520440+93969984+93102072+91987208+91063000+90543944+90352672
1377.57+90414864+90546360+90360792+89707432+88942400+88549280+88789064+89719728
1372.43+91174480+92744600+94072328+95001968+95397736+95239352+94955160+95062000
1367.28+95411984+95420248+94948416+94276920+93409264+92197936+90980352+90285536
1362.14+90075512+89996208+90116376+90708824+91556152+92101408+92105080+91729640
1357.00+91187808+90616288+90124240+89736976+89380880+89011384+88646288+88266792
1351.86+87818912+87343128+87021272+87001888+87155080+87109840+86670576+86073480
1346.71+85694080+85623296+85718904+85915544+86217232+86489312+86489552+86073104
1341.57+85297032+84416104+83761592+83472680+83366816+83227696+83108440+83181528
1336.43+83406920+83574888+83598672+83567176+83517968+83348096+83036984+82821648
1331.28+82962384+83370992+83687592+83724024+83607144+83500632+83434352+83381112
1326.14+83288408+83119064+83045088+83345816+83920864+84267416+84162144+83902904
1321.00+83694424+83340136+82772208+82300128+82089152+81924592+81657040+81428568
1315.86+81328752+81216936+80985616+80720968+80570912+80600848+80732712+80780592
1310.71+80642912+80412776+80211360+80054896+80015744+80262496+80757976+81111440
1305.57+80990656+80562200+80350136+80662104+81259640+81640112+81611304+81440456
1300.43+81408984+81484552+81570976+81755608+82045168+82192808+82097376+82090416
1295.29+82526544+83306104+84052824+84529992+84726160+84785640+84968408+85426928
1290.14+85963176+86293864+86527432+87008472+87713968+88213416+88289984+88237872
1285.00+88464192+89066568+89866664+90650048+91324560+91949344+92651728+93478784
1279.86+94357784+95191256+95927072+96578120+97228984+97981584+98863432+99854680
1274.72+100949880+102080504+103081112+103895296+104712984+105751592+107026136
1270.22+108446432+109937680+111402328+112798472+114284824+116052296+118000112
1265.72+119851544+121523592+123161928+124871032+126608952+128308936+130023008
1261.22+132021144+134649200+137894352+141255808+144266896+146979680+149710080
1256.72+152554688+155415888+158292624+161310624+164594112+168203792+172049776
1252.22+175861440+179440656+182935456+186635600+190490416+194100000+197306944
1247.72+200549440+204403072+208903664+213600944+218229504+222968288+228005024
1243.22+233160272+238127456+242897504+247797888+253160672+258976816+264857344
1238.72+270433952+275828288+281532192+287759680+294144896+300211232+305946496
1234.22+311738240+317890944+324360640+330883808+337203264+343191360+348916416
1229.72+354643008+360613312+366774560+372825664+378585440+384165568+389764352
1225.22+395456416+401226528+407029952+412789120+418397760+423740288+428733728
1220.72+433438144+438026112+442497792+446592928+450184192+453524320+456907552
1216.22+460346368+463687424+466707776+469089408+470774464+472303872+474242144
1211.72+476368320+477992608+478876800+479262304+479230496+478656704+477646656
1207.22+476523520+475436800+474256096+472732416+470667424+468051680+465052416
1202.72+461767552+458138592+454184384+450098976+445986816+441696704+437040032
1198.22+432029632+426813856+421489696+416025216+410355328+404529408+398703584
1193.72+392974752+387302080+381605376+375840000+369988032+364097024+358269440
1189.22+352556032+346970112+341628224+336640736+331823520+326802944+321504160
1184.72+316270112+311434528+307005504+302804192+298723328+294780256+291063008
1180.22+287632416+284427072+281323232+278330912+275591840+273093824+270573056
1175.72+267887584+265310464+263163024+261296912+259287440+257083664+255069136
1171.22+253519664+252348368+251344224+250333424+249167824+247857664+246604944
1166.72+245503520+244417568+243298448+242319680+241594384+241075008+240756880
1162.22+240661648+240670128+240679008+240755792+240882464+240819872+240519968
1157.72+240307664+240365328+240399456+240162048+239967536+240342928+241320736
1153.22+242394320+243111712+243544592+244151920+245344224+247215232+249526912
1148.72+251850144+253858880+255650736+257644352+260083184+262821664+265667728
1144.22+268641024+271795968+275098912+278580672+282359808+286455360+290736992
1139.72+295076064+299424960+303825568+308377216+313123488+318020544+323133568
1135.22+328705792+334839360+341290144+347783008+354326528+361055840+367997920
1130.72+375134592+382480736+390035904+397852384+406113024+414926208+424093856
1126.22+433280160+442344960+451412736+460763552+470690336+481231520+491986240
1121.72+502451712+512647904+523167104+534465792+546240640+557682496+568352320
1117.23+578661952+589360640+600661568+612134464+623408704+634507456+645416896
1112.73+655880128+665900480+675948672+686363008+696908160+707188608+717098304
1108.23+726656704+735764416+744368512+752642112+760825152+769007296+777086144
1103.73+784885504+792356288+799640448+806843520+813879680+820660096+827204224
1099.23+833416000+839127488+844515648+850013056+855625344+860864896+865509248
1094.73+869902528+874417536+879074432+883711104+888099264+892105664+896050752
1090.23+900538624+905548096+910148736+913561728+916079552+918540608+921296704
1085.73+924092544+926656128+929024064+931320192+933457920+935170944+936276224
1081.23+936744896+936503808+935437504+933687360+931615744+929312192+926409088
1076.73+922542080+917765184+912487936+907192256+902108288+896934912+891019904
1072.23+884050560+876335360+868212032+859526528+849983040+839651968+828737728
1067.73+817153344+804708288+791537984+777994944+764245376+750294464+736322240
1063.23+722630720+709228288+695703424+681632256+667002432+652217920+637744192
1058.73+623799360+610367040+597369472+584649024+571844800+558679552+545490432
1054.23+533034432+521527040+510309888+498804128+487342112+476609952+466585728
1049.73+456520128+445862144+434863968+424233504+414413952+405320000+396736704
1045.23+388716416+381367296+374380128+367134880+359336256+351355872+343921568
1040.73+337551616+332182048+327195936+321895136+316056416+310002976+304188800
1036.23+298815680+293765376+288771456+283705888+278721504+274089472+269984000
1031.73+266525616+263705200+261035824+257730736+253682864+249810848+246932480
1027.23+244741904+242478576+240073120+237970944+236266688+234744096+233448352
1022.73+232572000+231931264+231091600+229952048+228852512+228120576+227721536
1018.23+227394736+227054864+226934352+227251392+227872928+228510752+229123136
1013.73+229913984+231038992+232519760+234312816+236265456+238196928+240203584
1009.23+242737072+246192384+250518384+255348352+260447808+265968032+272199424
1004.73+279101600+286301536+293712352+301877632+311338304+321824320+332471168
1000.23+342781920+353080384+364028768+375930944+388533504+401393440+414359328
995.73+427639520+441395104+455375872+469030112+481950912+494124576+505679040
991.23+516395840+525672448+533075136+538630400+542320000+543614336+541921792
986.73+537262976+530181664+521279424+511084160+499996032+488092672+475250528
982.23+461570816+447442624+433247712+419260896+405669088+392401504+379197248
977.73+366105568+353617920+342072736+331226720+320616672+310092896+299858016
973.23+290196512+281260736+272980000+265151984+257679200+250684896+244316432
968.73+238510688+233046464+227804464+222922512+218624800+214919744+211553536
964.23+208277440+205056816+202002176+199233376+196842816+194881376+193281792
959.73+191828992+190259248+188452896+186595680+185099104+184239200+183886400
955.23+183623168+183069472+182079392+180772528+179509216+178736624+178712768
950.73+179283680+179940304+180156080+179777840+179114640+178602112+178411376
946.23+178439072+178586976+178845552+179124208+179218448+179047312+178774112
941.73+178597568+178552656+178604992+178750400+178907072+178935296+178898704
937.23+179059776+179468112+179862464+180125056+180433712+180821104+181053696
932.74+181141120+181510736+182410640+183468240+184036272+183838144+183270176
928.24+183135888+183890496+185114800+186048752+186584512+187230320+188131280
923.74+188808624+188954080+188867088+188964592+189326288+189802384+190227552
919.24+190520544+190807712+191336816+192127152+192947296+193724240+194588304
914.74+195389376+195662112+195335392+195074032+195577792+196836816+198301760
910.24+199499408+200252448+200579312+200666416+200766896+200960640+201171696
905.74+201482752+202170848+203255008+204247488+204635152+204505216+204422400
901.24+204682800+205000976+205040320+204964064+205175392+205744384+206429216
896.74+207109968+207840720+208576016+209142976+209443152+209459168+209183872
892.24+208680512+208114864+207637952+207347200+207332416+207599504+207973936
887.74+208192176+208099792+207732880+207308752+207064672+207024352+207002848
883.24+206864160+206653760+206463728+206327904+206205536+205922896+205306192
878.74+204514336+203968896+203777552+203541280+202893216+201966112+201206816
874.24+200959824+201227312+201616640+201614240+201083392+200374224+199849568
869.74+199493392+199057984+198452192+197895936+197641872+197572864+197319232
865.24+196861280+196541456+196293584+195607888+194613152+194295104+194994144
860.74+195585664+194958736+193651600+193225328+194388464+196343456+197787696
856.24+198131424+197602928+196525552+195064544+193729840+193371760+194175312
851.74+195299840+195935728+196071120+195966992+195604528+194945648+194292832
847.24+194219376+195217168+197019088+198283824+197684400+195249328+192180000
842.74+189893008+189595552+191665872+194795072+196982064+197707168+197847616
838.24+197660320+196638528+195234496+194851184+195689936+196035584+194346928
833.74+191285616+188983792+188610832+189227840+189136848+187642144+185249216
829.24+183012096+182141520+183159936+184799440+184904048+183153552+181647040
824.74+182037168+183464656+184138192+183562848+182247872+180500960+178610704
820.24+177189792+176326320+175170528+173219904+171328048+170607136+170805440
815.74+170598048+169258288+167303952+165552416+164260352+163388000+163073232
811.24+163269088+163365376+162868720+162155264+161807680+161563216+160836560
806.74+159824896+159033088+158267456+157277120+156730432+157310576+158392880
802.24+158777920+158177280+157266496+156916624
##END=
