##TITLE=
##JCAMP-DX=4.24
##DATA TYPE=INFRARED SPECTRUM
##DATE=31/1/2005
##TIME=16:45:9
##SAMPLING PROCEDURE=film
##ORIGIN=Vincent
##DATA PROCESSING=no operation
##XUNITS=1/CM
##YUNITS=ABSORBANCE
##RESOLUTION=2
##FIRSTX=4000.283
##LASTX=800.31372
##DELTAX=-0.64282227
##MAXY=0.0079368893
##MINY=-0.1833591
##XFACTOR=1
##YFACTOR=1.7076647e-010
##NPOINTS=4979
##FIRSTY=0.0010979943
##XYDATA=(X++(Y..Y))
4000.28+6429800+8022343+9256809+9730312+9587887+8690152+6659893+4039816+2269056
3994.50+2105808+3028691+4183145+4862249+4374619+2680257+923484+368383+1179317
3988.71+2766602+4585544+6108706+6811427+6665061+6221760+6066920+6285279+6321751
3982.93+5462235+3804494+2367526+1868541+2045276+2562048+3548093+4716148+5054381
3977.14+3952820+1887200-257077-1840811-2526305-2455129-2300957-2443013-2270364
3971.36-1066644+493767+791104-415616-1208466+105507+2772217+4821546+5512670
3965.57+5464057+5314123+5068051+3762138-129451-6346296-11486745-12251109
3960.43-9287126-5693594-3257335-2196455-2437865-3161652-3072023-2206754
3955.29-1673272-1815363-2436956-3522259-4465768-5187771-8395564-16557187
3950.14-26813646-33980296-37698408-40546840-41068348-35639444-25397274
3945.64-15550054-10638222-14287486-28342858-47465776-59322656-55652948
3941.14-40340052-23497750-11739951-5947679-3983009-2988750-1078463+1348117
3936.00+2360394+760777-3904306-13947400-32604136-57132320-76004880-79342984
3930.86-70269128-59004828-49590708-39537816-28011840-17747276-12604696
3926.36-17246858-33587188-54393236-66701728-64252296-50990112-34536364
3921.86-23923656-27724868-44499964-60170188-64773996-66484068-78587648
3917.36-98793752-110141680-100374136-74271760-45912884-24540772-10567576
3912.86-1439364+3781570+5999303+6952328+6854593+5406027+4283967+3427112
3907.72-2244920-17309790-42571724-80526672-132830624-187064608-222060768
3903.22-235183792-242302608-246663920-237796320-221898512-219001200-226730336
3898.72-217036048-175667072-119923592-71719960-38729056-21011744-16443330
3894.22-19605076-28426202-51832696-98941304-157625536-193115360-180672736
3889.72-133349376-82239688-46813416-37262848-65502708-132826024-208293216
3885.22-241868768-217039680-164678896-117691664-88919504-86410808-116920128
3880.72-167585952-201712816-190377216-142869504-89865824-50083912-26337508
3876.22-21454606-43085668-89670904-138590528-159089472-143063520-115957472
3871.72-114647288-160548640-243891088-319827296-334916928-278806592-192432160
3867.22-124620648-103242632-131790480-187403184-226565312-220521712-187135312
3862.72-163112112-157125392-148431984-121623008-84793272-53982484-39434536
3858.22-45143380-65177096-85906136-110499616-172875200-305366592-487973216
3853.72-636167680-680585472-635813888-539461504-411831776-281817888-180265232
3849.22-113628392-69886296-40371684-23525684-15901377-14847868-26588038
3844.72-57899388-99511616-128845656-135846992-136967888-152996800-181388752
3840.22-203945312-221684848-259299008-322002528-367098976-350841888-296084864
3835.72-255317504-237671536-213932528-172642336-140082384-140548032-162901392
3831.22-172343776-148898976-105503888-67721280-50860840-56899900-78416272
3826.72-100135720-105987224-92803184-72634392-60417116-68796504-112529344
3822.22-200492848-312170720-391332640-390499424-319909024-226904752-154818896
3817.72-134050384-177370080-261951712-324075616-308776000-230850928-144366896
3813.22-80817440-41814032-19565364-8508878-4528717-3989971-9737773-36029548
3808.08-98176888-187852640-259276576-263329216-206342416-138966576-98932856
3803.58-98385448-142929984-231979760-334690240-386784928-350015936-258510640
3799.08-170248112-116575528-103550912-121752200-146755024-149718608-122103032
3794.58-81156056-46546116-23890322-10019537-1891404+2305318+3995786+3611242
3789.44+1805587+387031-41230-1253314-5459149-14601906-29445634-45220220
3784.29-52065584-45507016-31878798-19879434-15482555-26663642-59469860
3779.79-103201592-130994152-125647560-96085448-61559636-33550388-15250820
3775.30-5635514-1238163+625676+382786-2336094-11696494-38640080-89841536
3770.15-149950688-184226576-171085824-126913448-88428504-80107792-99360008
3765.65-121775016-122602288-99041320-67633312-43054068-29179800-28548522
3761.15-49262448-94388464-146173440-172929856-163221856-140263152-129439280
3756.65-129153728-122150416-103248752-87319968-99440200-161664416-271431904
3752.15-380872992-431476928-436442048-457681728-502222080-506320064-430668352
3747.65-319678048-237593920-223164592-298269248-455494304-611818560-634290048
3743.15-509469824-353616640-243674848-181352320-145232368-123713760-116799368
3738.65-129533224-166698224-226389760-298286208-368103328-416910432-422757888
3734.15-385833312-343436928-332362464-344000480-332994464-275710368-197060720
3729.65-130697512-89703688-76279400-90990208-125529528-159840080-175554480
3725.16-169020368-150245376-136037248-140156416-158860512-169016384-153136976
3720.66-122436760-100648664-94239208-90802416-79074088-60249836-42677260
3716.16-33799312-35190676-43220100-60584972-104085272-185310048-279137216
3711.66-331666400-324412672-296432704-279175552-259316000-215071360-154921024
3707.16-102609968-68608520-49839848-40349300-35538992-36756392-53904424
3702.66-93169728-140108512-164895136-151620176-113803216-75383056-48793464
3698.16-34260888-28933120-29975720-32859438-33707760-33138052-33631768
3693.66-37336940-52245872-91369280-153146400-210425296-241393456-265282144
3689.16-313006368-369529632-376382816-308841248-209975040-128430624-77733584
3684.66-49532136-33404374-23189532-16292110-13167862-17282088-33167080
3680.16-60543524-89018464-105088200-111511048-134893200-206135264-330339264
3675.66-464909344-531647584-485415424-362695584-238737440-170736608-179668096
3671.16-248306576-327093536-366544160-355698400-309776000-240486144-161518752
3666.66-94530448-51625940-27366474-12961254-5968548-4193679-3343930-2983904
3661.52-4986563-7866401-9639011-10856192-12546472-21435968-54153740-118186880
3656.37-186839264-213584640-184264928-128860088-81156936-60323260-78689056
3651.87-140138608-232149376-330182464-409690240-453218528-458266912-439184480
3647.37-406950944-354807040-277395840-190695072-118499120-71666912-47973964
3642.87-40561452-40612180-39395728-33861540-27569818-24855430-26849342
3638.37-31809340-35965584-35596992-31493448-30733648-41587668-65003916
3633.87-90279880-101712968-94238320-82522624-93148976-149310976-256589536
3629.37-387535072-478827392-475651968-390431840-281701216-191445120-128824064
3624.87-88146504-63418844-50979104-48156628-54039172-72071576-108772432
3620.38-163906144-221128192-256605184-260681536-240742416-205712784-164701632
3615.88-133135312-122230440-128386536-143977872-167589648-190459360-190758064
3611.38-164850240-144108512-156583824-191835648-217021328-217244544-201668272
3606.88-178061616-145806160-108110928-74645976-53126056-44480008-45181504
3602.38-52305272-65084900-80445608-91114832-93026488-89973800-86081400
3597.88-81179840-78113752-84311736-100216768-115415168-121455952-119962360
3593.38-114447312-103725256-86644648-67581936-56917096-67214368-103507840
3588.88-154793504-201128544-231082672-242981648-232088768-194763776-143251232
3584.38-98615272-70760992-55279492-45368540-39363488-38270380-41284616
3579.88-44782372-45143680-42613756-40712136-41250316-42597956-43181944
3575.38-43457044-43788444-43047216-40149368-35990396-33234414-33675748
3570.88-36940160-44742164-64720200-103608248-155695936-203692592-232605392
3566.38-237397040-218859600-182974512-142694960-109935824-87003864-70699368
3561.88-60424220-57177372-58348916-58587132-54669496-47623176-40915304
3557.38-36861876-34663768-32798082-32111124-34437960-40245448-49721524
3552.88-62535112-74060336-76891576-69271840-57489800-48699784-46560704
3548.38-52912868-67195760-84159512-97086304-103172768-102903480-96768784
3543.88-85800032-72650008-59858688-48825588-40648288-35752748-33000096
3539.38-31026274-30210908-32331448-38355792-46403528-51924192-51362412
3534.88-45859284-39730044-35887264-34651800-35609252-38253652-41992360
3530.38-47272940-55123448-64565624-72579296-77241600-78695520-77286880
3525.88-73602976-70090992-69815512-73087216-76551528-75786832-68914528
3521.38-58357508-48939200-43806624-42510304-42742252-42620324-41281636
3516.88-38848192-36297960-34530680-33616808-33442970-34377540-36568128
3512.38-39399012-42539520-47051816-54159380-62453464-67377640-65199848
3507.88-57428740-49478912-45232432-45107340-48872284-56925992-67834936
3503.38-77350120-81420904-79081144-72069520-63116604-54765636-48474328
3498.88-44441576-42641484-43480004-46876216-51191564-53835848-53241552
3494.38-50177848-46861040-44766288-43798284-43433204-43510696-43791716
3489.88-44185048-45590700-48851760-52729948-54730328-54120492-52315368
3485.38-50462000-48823808-48468672-51188596-57072732-63579400-67461480
3480.88-66888080-62107932-55299364-49547596-46728888-46310344-46784844
3476.38-47732076-49542836-51726640-52797356-51876060-49552352-47143184
3471.88-45620472-45101984-44911052-44313760-43480588-43495792-45202352
3467.38-48159900-50780600-51501164-50149008-48297636-48032864-50217964
3462.88-53971500-57426372-58830060-57539592-54558228-51707332-49973324
3458.38-49036740-48412752-48312508-49123572-50557996-51640496-51546904
3453.88-50465268-49421524-49138444-49494372-50142480-50829632-51154424
3449.38-51521656-54297376-61685404-71727928-78637320-78373352-72319704
3444.88-64871520-59580032-58036596-59907256-62810496-63600992-60961800
3440.38-56423732-52721632-51423020-51938748-52548208-52316264-51636924
3435.89-50973164-50228380-49733120-50428408-52343880-54215460-55177744
3431.39-55520068-55457480-54743084-53801424-53638464-54390864-55241816
3426.89-55703676-55777824-55209480-53943012-52984420-53642316-56196288
3422.39-60080180-64725528-69309000-72196824-71772440-68024152-62872012
3417.89-58681040-56508540-55825284-55677568-55644648-55627148-55411800
3413.39-54858804-54061728-53131688-52274976-51949436-52288940-52661652
3408.89-52624232-52866248-54181636-55999972-57071848-57248524-57464012
3404.39-58164312-58738812-58504464-57572200-56487776-55372052-53850104
3399.89-52021024-51101532-52429416-55823796-59470152-61525308-61508736
3395.39-60343100-59552180-60276784-62375660-64315268-64324124-61917680
3390.89-58323136-55422480-54316372-54824092-56109692-57489800-58740292
3386.39-59981876-61304536-62287504-62103484-60474548-58182984-56250852
3381.89-55076272-54660596-54907464-55332004-55282164-54768008-54296188
3377.39-53869988-53208888-52871888-53926388-56337436-58681040-59662948
3372.89-59242088-58194236-57156032-56357604-55978016-56273392-57111868
3368.39-57866196-58270988-58913008-60178192-61333840-61526488-61064212
3363.89-60821784-61054448-61472340-61704044-61277900-60045832-58830348
3359.39-58579420-59017860-59234680-59197368-59422472-59688712-59399964
3354.89-58731996-58304168-58177352-57976736-57486536-56618536-55294620
3350.39-53741760-52519988-52157656-52911084-54591460-56378368-57281128
3345.89-57013744-56128088-55316868-54935652-55007152-55346244-55853160
3341.39-56700076-57845740-58515132-57957472-56746624-56432040-57749432
3336.89-59798284-61206284-61497788-61048820-60148580-58681636-56772124
3332.39-55177744-54528844-54485820-54277492-53881568-53980112-54896188
3327.89-56250852-57468752-58020292-57520036-56259448-55331112-55497524
3323.39-56210524-56324992-55496044-54375724-53702280-53620052-53814480
3318.89-54031160-54330612-54794420-55039780-54471280-53198800-52302896
3314.39-52767368-54376312-56050684-57035680-57370952-57412736-57377764
3309.89-57302768-57060872-56432040-55458076-54580776-54091708-53735532
3305.39-53269452-53021540-53311616-53706136-53569884-53054792-52824976
3300.89-53155148-53913920-54921708-55660072-55311532-53859600-52508412
3296.39-52245572-52589492-52472776-51782796-51349628-51871612-53343680
3291.89-55107432-56263604-56486004-56446268-56933700-57670904-57611020
3287.39-56305120-54442788-53170292-53238572-54522016-56030216-56713416
3282.89-56476216-56084196-56102280-56403860-56571984-56221496-55234100
3278.39-54252856-54417560-55834768-57058504-57028856-56703632-57465792
3273.89-58689040-58497056-56585032-54564164-53489136-52656600-51253364
3269.39-49886828-49753336-51140756-53336852-55380948-56448344-56179388
3264.89-55192276-54767716-55491588-56633952-57225400-57172636-56892484
3260.39-56501120-55997300-55715832-55882820-56023092-55472016-54448424
3255.89-54029080-54919620-56586512-57834488-57995104-57343080-56546788
3251.40-55993144-55637828-55278608-54921708-54758520-54700660-54291440
3246.90-53526256-53300032-54280756-55655032-55974456-55094072-54221108
3242.40-54142460-54428848-54461480-54308952-54351688-54656740-54999136
3237.90-55164096-55013980-54488780-53763428-53264112-53267376-53559800
3233.40-53798456-54032644-54378984-54463264-53943304-53272720-53098144
3228.90-53278064-53404236-53748288-54624396-55432264-55382136-54607188
3224.40-53786880-53314576-53300328-53642020-53921632-53964672-54219620
3219.90-54834768-55057288-54416372-53591256-53295288-53377520-53701096
3215.40-54642500-56042376-56834976-56340992-55144516-54399760-54814000
3210.90-56221796-57736096-58430396-58006664-56631288-54559112-52351304
3206.40-50845980-50305360-50165064-49959652-49757496-49541052-49167288
3201.90-49073908-49961436-51689216-53366240-54510748-55350096-56084196
3197.40-56576444-56676356-56286144-55246272-53616792-51970532-51003772
3192.90-50838244-51038540-51241188-51290504-50893224-49921896-49071824
3188.40-49256496-50194192-50680152-50428120-50371052-50912840-51222468
3183.90-50623684-49557996-48813992-48623344-48753320-48997484-49543436
3179.40-50843000-52821412-54462080-54742784-53655976-51767640-49439668
3174.90-47119080-45611240-45362284-46073064-47214308-48310724-48836292
3170.40-48592108-47983488-47443740-47096156-47212820-48064104-49093544
3165.90-49281480-48546600-47808840-47665432-47859420-47870128-47375008
3161.40-46390432-45401892-45019176-45317012-45878944-46311532-46330884
3156.90-45836060-45337564-45641624-46648512-47134856-46162684-44125760
3152.40-42202592-41300428-41575436-42542800-43613516-44687052-46011732
3147.90-47472308-48463616-48513888-47709168-46597020-45835168-45673480
3143.40-45666928-45262812-44566104-44003588-43480588-42632248-41672072
3138.90-41194836-41287900-41574836-41915724-42441136-43174192-44187428
3134.40-45736912-47612760-48739040-48158116-46237408-44255664-42896976
3129.90-41839380-40847880-40497904-41345176-42852856-43800668-43644208
3125.40-42982832-42752392-43436184-44914624-46407100-46618160-44796668
3120.90-41919600-40038648-40159212-41331152-42102708-42151312-42079740
3116.40-42194248-42135800-41464188-40276488-39251240-39107944-39827636
3111.90-40530724-40352584-39261096-37831632-36602796-35932104-36056452
3107.40-36868152-37811616-38310992-38204676-37789516-37612976-38123440
3102.90-39218404-40250224-40745544-40892632-41024200-40933808-40192036
3098.40-38950304-37966640-37811920-38334588-38905520-38916568-38085512
3093.90-36501188-34579724-32893854-31881792-31591666-31741972-31990474
3089.40-32124596-32083882-31996162-32071004-32251820-32081488-31258674
3084.90-30257346-30029946-30965180-32395806-33249072-33074610-32379344
3080.40-32019218-32340134-32931864-33126684-32617908-31626098-30692608
3075.90-30283414-30413426-30698302-30912162-31173322-31356900-30904374
3071.40-29712640-28621972-28371638-28681924-29012854-29510962-30460762
3066.91-31527580-32399100-33463020-34973580-36115336-35789212-34021884
3062.41-31856348-30141104-29028138-28504154-28611772-29024542-29063210
3057.91-28626466-28569206-29516056-30710286-30887304-29994894-29110862
3053.41-28810224-28602782-27889498-26707744-25577968-25193458-25957618
3048.91-27414164-28510446-28682222-28136574-27084526-25586074-24179832
3044.41-23641326-23948588-24284938-24090338-23446682-22617766-21898892
3039.91-21670142-22064804-22838616-23772286-24765662-25499030-25646400
3035.41-25380468-25031656-24535368-24012854-24379228-26307808-28892956
3030.91-30384970-30068002-28607578-26843344-25117212-23597772-22533928
3026.41-22115900-22304034-22705808-22670650-21928348-21014448-20639476
3021.91-20730292-20574818-19831000-18938918-18507956-18636770-18905816
3017.41-18915144-18682216-18461302-18329472-18220508-18285828-18766180
3012.91-19443516-19689614-19236814-18564838-18347532-18718930-19243134
3008.41-19459464-19269912-18839308-18429400-18454380-19290072-20594368
3003.91-21224916-20413620-18717426-17257094-16432486-16002906-15821535
2999.41-15700410-15049502-13558113-11963256-11443585-12381749-14111722
2994.91-15676306-16568029-16832174-16695437-16252348-15610921-15111889
2990.41-15073914-15452120-15995677-16470740-16543933-15964645-15098024
2985.91-14684498-14820740-14830688-14262162-13305996-12243867-11310183
2981.41-11018598-11694379-12740447-13224564-13080092-12958235-13163037
2976.91-13494181-13812016-14007401-13773720-13131067-12703945-12813750
2972.41-12836071-12186241-11330102-11057540-11280905-11369642-11240157
2967.91-11337648-11789743-12219731-12291841-12092402-11924931-11806341
2963.41-11350929-10490285-10067552-10863437-12108996-12113220-10550366-8962683
2958.27-8654817-9221273-9540851-9294073-9041229-9376537-10241485-10899058
2953.13-10711284-9959744-9474704-9497659-9519708-9237888-8960871-8962985
2947.98-9006791-8740624-8245379-7918688-7833758-7557798-6884242-6417061
2942.84-6782649-7580770-7956467-7893603-8003915-8312766-8304910-7940751
2937.70-7622484-7419353-7123393-6802000-6640532-6551025-6384703-6205063
2932.56-6066846-5794928-5197452-4311417-3425376-2947869-3137126-3860413
2927.41-4680636-5121207-4907587-4123458-3140760-2285812-1733866-1737804
2922.27-2509647-3733572-4733593-5172038-5048288-4172189-2503589-804495-52448
2916.48-311643-894508-1303313-1416336-1203618-879354-872081-1299374-1907460
2910.70-2642606-3614900-4482414-4607099-3950923-3254913-3152266-3474423
2905.56-3543451-2980876-2123755-1688420-2036815-2871557-3610662-3903701
2900.41-3824995-3724188-3892501-4246647-4379515-3941236-2908804-1652063-836925
2894.63-963000-1740228-2269456-2102853-1751135-1852626-2307924-2591422-2519944
2888.84-2286418-2001675-1536323-829651-156735+48054-286179-687504-682958
2883.06-406523-397732-898751-1610555-2081042-2084678-1734472-1422093-1554503
2877.27-2143445-2724982-2826131-2406667-1705993-857230+54875+674651+574125
2871.49-154916-859352-987548-523223+207986+778367+751528+41838-793281-1044219
2865.06-605971+71398+575034+702399+378086-153704-364691-27891+472995+668132
2858.63+518177+248463+78068+231787+816124+1505552+1689695+1097726+151440
2852.85-387123-100348+733332+1443214+1656779+1620374+1817571+2403334+3118387
2847.06+3614733+3753636+3626574+3357593+2987259+2541564+2081838+1601111+1061785
2841.27+692847+970948+2030712+3273201+3917294+3793715+3331637+2909253+2562352
2835.49+2266477+2142978+2271939+2505754+2602867+2465848+2186369+1906162+1718060
2829.70+1659812+1741572+1958348+2223995+2301980+1958651+1344174+1115470+1894481
2823.92+3492687+4845391+4944871+3881768+2734583+2324435+2398479+2313056+2081534
2818.13+2135241+2439294+2587086+2536556+2531246+2541716+2486787+2648087+3215524
2812.35+3793866+3961626+3851253+3715229+3444113+2952960+2514099+2404548+2681167
2806.56+3298396+3966939+4124233+3617162+3103969+3188659+3604107+3787794+3782784
2800.78+3935057+4224597+4525256+5053014+5882308+6391504+5894919+4694887+3891484
2794.99+4095082+4814560+5247286+5269160+5310326+5541686+5593035+5138832+4487292
2789.21+4345464+4984058+5876838+6350320+6376307+6356703+6314912+5888841+5095695
2783.42+4465274+4307199+4377808+4370823+4272124+4178135+4158093+4321776+4712655
2777.64+5240299+5891576+6745462+7541860+7689644+7006745+6064032+5496263+5336757
2771.85+5300604+5314883+5452968+5656386+5843108+6038961+6205804+6226167+6216897
2766.06+6496819+7055844+7425707+7291315+6837722+6324182+5770940+5293921+5205514
2760.28+5511758+5849794+6147605+6714608+7446838+7705153+7325064+6953849+6981665
2754.49+6970873+6587550+6271451+6413995+6614754+6372355+5908441+5746175+5910721
2748.71+6042608+6028781+6129979+6615362+7400773+8044697+8153275+7807635+7428139
2742.92+7268816+7292531+7380402+7348020+7012066+6633752+6878152+7836677+8613188
2737.14+8463524+7821319+7567403+7785435+7918940+7756546+7639166+7868001+8315391
2731.35+8567558+8352804+7869826+7623658+7883511+8466566+9040172+9393130+9450186
2725.57+9258939+8892765+8288471+7416889+6654878+6514753+6969200+7518446+7915291
2719.78+8242696+8368925+7972922+7173197+6603812+6751238+7494881+8276305+8594631
2714.00+8465654+8396605+8746432+9262134+9481377+9352051+9157465+9054015+9013093
2708.21+9041389+9142555+9154878+8845305+8215778+7653914+7666534+8315695+9032261
2702.42+9239465+9063295+9119583+9653164+10255194+10421401+10129176+9769419
2697.28+9670055+9759681+9733051+9542848+9527480+9884159+10252759+10125523
2692.14+9553043+9124603+9289216+9936662+10599796+10875787+10622326+9938943
2687.00+9105434+8523296+8551283+9210863+10069821+10567070+10507098+10172246
2681.85+10006816+10233887+10683214+10903647+10590359+9999055+9746442+10094476
2676.71+10630240+10803932+10568136+10325816+10430990+10912019+11525159+11911663
2671.57+11820590+11311221+10692804+10201468+9855094+9624709+9588952+9829528
2666.43+10258086+10644397+10786882+10702547+10655358+10899232+11292493+11338933
2661.28+10773334+9938182+9391761+9284347+9390087+9574801+9933160+10486091
2656.14+11008694+11205095+10993925+10613649+10411050+10460823+10511360+10432056
2651.00+10499486+10973828+11619267+11983093+12018732+12061377+12262584+12372561
2645.86+12094276+11437906+10691130+10198272+10178029+10643941+11386592+12069449
2640.71+12424200+12412471+12174088+11860643+11580132+11450088+11570996+11928720
2635.57+12390384+12733447+12692464+12184901+11555613+11315636+11514805+11664494
2630.43+11456941+11223366+11434404+12013401+12453143+12485437+12352454+12449790
2625.29+12875439+13363027+13531876+13209883+12619798+12261822+12479800+13112670
2620.14+13671778+13856346+13781510+13746305+13944291+14345190+14686534+14701628
2615.00+14454798+14279943+14304181+14337565+14303419+14335279+14338784+14009527
2609.86+13469242+13341540+13883171+14503430+14501754+13944901+13480518+13495149
2604.72+13803001+14104795+14429035+14963881+15618113+16003257+15906393+15580135
2599.57+15427926+15500675+15514706+15335660+15190480+15294484+15490609+15486186
2594.43+15291587+15173248+15300431+15654413+16137652+16541336+16623423+16419431
2589.29+16258324+16296769+16344520+16273579+16222777+16269307+16269002+16130176
2584.15+15937663+15780857+15727624+15902580+16291886+16549269+16289750+15566713
2579.00+14891302+14787010+15346944+16174570+16737555+16794778+16470084+16031325
2573.86+15720303+15748826+16257102+17201464+18258090+18878044+18673870+17897486
2568.72+17306924+17354544+17761016+18034732+18053662+17946646+17793990+17668818
2563.58+17670192+17747736+17750330+17676296+17655844+17743768+17922372+18211524
2558.43+18609736+18981586+19091704+18778780+18219158+17978400+18498878+19482872
2553.29+20148348+20145448+19835144+19651518+19625090+19619590+19657782+19852408
2548.15+20196634+20514160+20600964+20457470+20295340+20278378+20370520+20468016
2543.00+20454414+20170966+19652892+19304922+19461640+19899770+20161492+20162254
2537.86+20124974+20168674+20294424+20472292+20540292+20375106+20242624+20513858
2532.72+21029354+21287828+21200698+21090032+21017586+20737894+20302218+20121458
2527.58+20357686+20654910+20593782+20171116+19731414+19547640+19627992+19886936
2522.43+20295492+20738658+20958128+20866880+20744008+20882932+21225462+21519882
2517.29+21646006+21632860+21559478+21547092+21677346+21875340+22010046+22026864
2512.15+21891396+21582866+21260312+21181440+21348974+21532570+21691414+21989406
2507.01+22355024+22478130+22342482+22263574+22324898+22214948+21801646+21421430
2501.86+21382756+21568038+21726882+21842928+21996438+22162802+22336978+22576316
2496.72+22768718+22660736+22286816+22086502+22351352+22787072+22845808+22365116
2491.58+21739420+21485946+21744008+22198892+22485166+22586868+22727268+22996778
2486.44+23283604+23504056+23678476+23834238+23988636+24138450+24155134+23881214
2481.29+23434752+23199616+23413794+23947626+24502386+24847240+24883830+24709328
2476.15+24575550+24600498+24618712+24486778+24339234+24349798+24428002+24382242
2471.01+24226444+24096672+23960172+23659964+23219808+22932382+23074486+23605188
2465.87+24214354+24613660+24706418+24500856+24047400+23538328+23312666+23549188
2460.72+24026128+24355462+24479428+24698764+25164434+25560520+25504788+25109322
2455.58+24852904+24912300+24947660+24630804+24102182+23717950+23596464+23633648
2450.44+23778542+24032250+24289038+24386072+24282000+24079534+23943342+24027810
2445.30+24347044+24690806+24818924+24756164+24695398+24640598+24389284+23922374
2440.15+23552404+23558982+23852754+24126054+24193084+24082442+23926050+23871422
2435.01+23999804+24210528+24301742+24264860+24353780+24736878+25206690+25393626
2429.87+25159076+24696772+24350564+24349954+24611670+24824894+24797494+24645652
2424.73+24584120+24675346+24842804+24923628+24722490+24248636+23885652+24036380
2419.58+24601264+25059416+25064928+24774074+24605394+24795960+25211894+25553172
2414.44+25702006+25738910+25672452+25400518+24992056+24721110+24733356+24877246
2409.30+24928068+24832086+24687286+24556264+24385762+24190330+24194308+24525192
2404.16+24881072+24884132+24655908+24549220+24534528+24362960+24116872+24036228
2399.01+24120852+24331278+24750348+25193678+25212046+24760452+24287968+24017560
2393.87+23762628+23510788+23544754+23921916+24293324+24266086+23715810+22823324
2388.73+21894146+21004132+19842630+17991222+15219454+11471862+6727832+847816
2383.58-6586405-16118293-27997446-42187688-58820576-78260176-100745112
2379.09-126358480-155188880-187108288-221643152-258385216-297263040-338146880
2374.59-380511712-423637024-466861664-509666336-551704704-592706176-632362624
2370.09-670484288-706981312-741506368-773607808-803344256-831099200-856888512
2365.59-880556672-902096896-920994752-936275200-948043840-957566208-965104448
2361.09-969457728-970236224-968565632-964813184-957344320-944210880-925239360
2356.59-902184256-876942720-849125568-815610624-773391296-722653184-666115904
2352.09-605370496-538588352-463272480-383540096-314600544-276643264-281756864
2347.59-325863744-392390624-463505184-528275616-582352064-624361280-654679232
2343.09-675537920-690111744-701130688-710175360-717426048-721578688-720909056
2338.59-715806016-709830720-706415872-704624256-700416832-692304576-683299648
2334.09-676822656-673224128-670966784-668887808-666132288-661366528-653436160
2329.59-642385664-629019136-613679872-596444928-578574976-562474944-549500160
2325.09-538863872-529077248-519047488-507494400-493233344-476623616-459140768
2320.59-441429568-423131040-403981568-383795872-362436640-340925728-321182048
2316.09-303886784-288108384-273210848-259356240-246237392-233032512-219453696
2311.59-205688464-191981856-178894528-166952928-155780064-144657616-133726208
2307.09-123561280-114148472-105225208-96850216-89042752-81702488-75018664
2302.59-69140840-63765676-58705332-54126720-49853528-45493020-41324892
2298.09-37898244-35003188-32109324-29149826-26064746-22654426-19391166
2293.59-16992392-15079340-12719030-10068458-7990316-6571285-5253122-3692704
2288.45-1686299+840840+3426960+5582401+7492753+9357528+10799214+11658709
2283.30+12322597+12753557+12475535+11731806+11275287+11137647+10831334+10317444
2278.16+9702770+8749778+7545052+6745006+6583599+6522655+6158698+5646511+5207641
2272.38+4878956+4668461+4580077+4641733+4955199+5452056+5807556+5830801+5678719
2266.59+5619773+5904946+6666125+7596442+8148257+8299574+8511434+8830549+8877249
2260.81+8731829+8885920+9385219+9871985+10283350+10810783+11431814+11993144
2255.66+12425875+12623606+12538754+12436994+12673422+13289274+14056473+14732884
2250.52+15174315+15480238+15944986+16572615+16927230+16804848+16600536+16652108
2245.38+16734962+16567731+16348792+16437434+16847118+17307688+17616614+17777654
2240.24+17861614+17827574+17605318+17370264+17469168+17928630+18330768+18387414
2235.09+18309544+18392146+18545906+18542090+18487578+18698760+19177844+19535422
2229.95+19494024+19230538+19041762+18909200+18667456+18426196+18467728+18757858
2224.81+18913628+18683798+18208928+17771550+17511600+17451922+17616156+17987252
2219.67+18449558+18892246+19260780+19461946+19375640+19087580+18903088+18947836
2214.52+19004190+18910114+18812224+18833758+18846738+18801534+18885678+19121790
2209.38+19178150+18820776+18252594+17838104+17743616+17913364+18188624+18412760
2204.24+18569424+18768396+19000524+19063448+18847806+18582556+18634320+19084372
2199.09+19605840+19788854+19563832+19203504+18912406+18592940+18111370+17610814
2193.95+17362328+17440474+17707284+18009084+18203586+18136104+17796278+17452684
2188.81+17437420+17791394+18243892+18535524+18632640+18634014+18599810+18513230
2183.67+18331224+18057784+17789256+17641036+17617530+17639358+17706064+17883292
2178.52+18104348+18180226+18064654+17932294+17891992+17794904+17487788+17138284
2173.38+17095554+17414068+17740866+17789714+17758574+18005880+18458108+18698912
2168.24+18627448+18595534+18817416+19047412+19008162+18803978+18696012+18714030
2163.10+18679520+18486968+18228776+18075494+18098090+18227250+18356876+18438412
2157.95+18458566+18433220+18436580+18527278+18632182+18627600+18529264+18433678
2152.81+18376574+18401460+18643176+19095674+19438728+19360368+18963720+18632640
2147.67+18564232+18636610+18679214+18690362+18781834+19007244+19277122+19429716
2142.53+19328596+18958068+18505290+18310004+18572934+19125916+19604008+19772356
2137.38+19590564+19127440+18591412+18262060+18236410+18371534+18515216+18600878
2132.24+18558886+18388026+18233664+18187706+18217632+18396118+18830550+19267042
2127.10+19290870+19012438+18969676+19311336+19659766+19801230+19892282+20027496
2121.96+20115194+20127570+20078218+19929864+19764106+19824144+20171116+20550838
2116.81+20674164+20444632+19959810+19520298+19517090+20018328+20557868+20560618
2111.67+19959964+19270862+19059782+19427576+20048428+20576512+20858934+20802234
2106.53+20337058+19638684+19164558+19285372+19905270+20510648+20602796+20156754
2101.39+19647852+19536644+19794200+20032690+19976464+19673208+19370142+19276972
2096.24+19369074+19454766+19482108+19604314+19822464+19881590+19585372+18901258
2091.10+17808032+16521806+15719389+15929732+16837656+17675228+18099768+18218700
2085.96+18143126+18012748+18112136+18509414+18856816+18867812+18708382+18706700
2080.82+18902936+19066502+19019462+18809628+18619508+18596602+18784276+19067420
2075.67+19092926+18483608+17381712+16583752+16819802+17986182+19280942+20019854
2070.53+20148198+20036356+19941324+19820020+19582928+19049396+17590358+14654668
2065.39+11181191+9556999+11197026+14770544+17682554+18644398+18177326+17460010
2060.25+17439254+18377948+19640212+20297784+20172492+19886020+19945144+20272420
2055.10+20545184+20598214+20555424+20722606+21198862+21638668+21650898+21285382
2049.96+20875440+20588278+20366394+20119470+19830716+19625242+19659156+19831174
2044.82+19837436+19623712+19260932+18292138+16061375+13146344+11581502+12805051
2039.68+15881073+18556444+19680084+19849506+20051940+20580486+21226224+21732540
2034.53+21854242+21518506+21065882+20948500+21176088+21383978+21369456+21269024
2029.39+21281252+21394986+21322526+20762804+19897324+19386792+19563374+19929406
2024.25+19788090+19070016+18323286+18194424+18938216+19998772+20247820+19020684
2019.10+16492816+12757975+7747879+2880722+1264094+4633077+10962867+16547132
2013.96+19600648+20802998+21348974+21723980+21885890+21655026+20968062+20093498
2008.82+19421772+19077652+19036874+19379004+20018480+20491088+20458080+20110458
2003.68+19777854+19551000+19500440+19752646+20067678+19935366+19333484+18850250
1998.53+18865368+19184410+19550696+19901452+20161798+20388244+20410402+18146638
1993.39+9737464-5417703-19855066-22726542-11838326+2922304+10767550+10667383
1988.25+9039411+10547738+14468061+18200990+20471682+21268568+21154382+20960418
1983.11+21113112+21324974+21228212+20852518+20429656+20208858+20334766+20586290
1977.96+20602186+20473362+20548088+20757914+20844720+20951708+21267954+21563758
1972.82+21666186+21733914+21714194+21442528+21174256+20475196+16868022+8116930
1967.68-3356042-10653619-8824315+90802+9834701+16249933+19360520+20681654
1962.54+20827910+19981200+18923248+18559956+19056422+19960574+20723066+20962864
1957.39+20658422+19988534+18865216+17289526+16187994+16699714+18457498+19935060
1952.25+20510344+20713286+20790770+20573912+20247974+19925740+19125150+17365838
1947.11+14373086+10265392+7001425+7047788+7096583-2619285-25777256-48927596
1941.97-52024000-31912334-5351146+11899023+18233510+19744858+20306802+20545946
1936.82+20775030+21169364+21324056+21170588+20944984+20360284+19348606+18900034
1931.68+19669850+20783436+21274222+21382298+21528900+21587454+21643864+21881302
1926.54+21857760+21188930+19129886+12162969-3514084-23634722-35148212-29550516
1921.40-12285505+4731942+11146173-2515704-38758324-79152264-91119792-63912032
1916.25-22460004+5735844+16567883+19551612+20492158+20471528+20303286+18260534
1911.11+10699198-897539-9500076-10944942-7331989-1822634+4623662+11294168
1905.97+16442772+18664862+18418866+17914740+18867354+20409790+20702436+20052094
1900.83+20133682+21009636+21460110+21252974+20946206+20253014+17507174+10483505
1895.68-380757-8816761-7385193+2737011+12900272+18229080+18626992+9298648
1890.54-16158058-49169960-65689740-52186768-21939770+3296120+15034940+17210774
1885.40+15452022+13128516+12605631+14742338+17973512+20163174+20866424+20895770
1880.26+20593628+19860658+19319278+19778924+20771058+21302808+21510252+21866624
1875.11+21967236+21662058+21507038+21185260+19798478+16166941+4343187-26797144
1869.97-79468760-132780840-155366560-138477680-101808800-65824160-36411532
1865.47-12954918+3876151+13701955+18140226+19186856+18434898+17362022+16810646
1860.33+16622050+16096157+14847695+13825405+14777557+17694308+20382592+21550762
1855.19+21985122+22251494+22038792+21555960+21032562+20107708+19413218+19957824
1850.04+19748676+14419429+2332173-12103866-19988926-18006784-23301286-67375576
1844.90-157570528-242339280-246250864-168001744-78011152-22475932+2393168
1840.40+13712165+18074730+16848338+11591705+2809396-5486679-5494846+3204140
1835.26+11900240+15092732+14468671+12682867+10481068+2477834-27254600-88567304
1830.11-156761712-181531024-144221664-78883928-27807332-13351535-40248140
1825.62-90037296-119964672-101219464-53951016-15522030+2751427+10697068
1821.12+15561223+18192288+19661752+19349522+14310279+6183011+1598380+3858844
1815.97+10227799+16592906+20029024+19128052+14427814+5738883-10180186-33577916
1810.83-53888396-56134312-38565424-16528572-4819533-2742244-151278+6619010
1805.69+12360527+13871129+11923237+2835346-18808010-46838116-66620804-75914248
1800.55-86495496-99515704-97502408-70258216-34026068-13735728-16744230
1796.05-28429500-31127202-30483826-56711636-129629736-222508032-272422464
1791.55-248388768-182197968-113621152-56393484-14971443+6498947+13157924
1787.05+13195408+2002494-27603710-61257776-70679896-49093244-18635866-3711473
1781.90-14443948-44523500-71451744-72006736-47715116-20022918-2502680+2738073
1776.76-7630947-30865438-48952872-55641984-81959656-162832272-283235424
1772.26-370732480-362840448-273957920-167669968-101875496-100757648-139054976
1767.76-155760688-116881912-52815180-7794165+9101479+12146671+4190889-31182308
1762.62-101403592-174638688-193291568-140657600-65217576-18033574-11363906
1758.12-36713064-83321696-125753168-126014000-80158320-28810524-2481782-929663
1752.98-28007042-101375048-206923248-276409088-264637984-216444736-190150480
1748.48-186482896-175783632-146919552-110171576-77184536-58030076-61448664
1743.98-84116688-104513896-98839248-72480896-66760496-117339360-202714336
1739.48-244931264-199532464-114438616-51809224-30761802-60033396-164937200
1734.98-352257632-548379776-610125248-488887648-297657632-153602512-94756832
1730.48-98614688-112020248-94624800-52573748-15788996+1987172+7363375+8754342
1725.33+6320231-3319405-18692146-30899284-30928038-19887256-8667809-10934378
1720.19-43443336-126481344-266779888-426235296-515327008-477090912-375413408
1715.69-305414400-283215872-260003680-198569184-118046512-56135788-27077624
1711.19-25129518-37922436-47596092-40510732-28521240-41960760-93892976
1706.69-162604240-213362480-231565968-224188880-196736368-150847984-112134256
1702.19-141611824-301192928-589154304-844130752-815568768-552466944-310566624
1697.69-211666704-262199776-416298144-551261952-515576832-333693056-157584512
1693.19-60118672-25309930-19515124-31532374-58458536-85088248-98885032
1688.69-102971896-98826696-85792712-90163440-163046976-336831808-572284416
1684.19-729578368-687783424-501360448-302053792-170357840-120135576-116538744
1679.69-111486976-84921704-49873740-29560106-50089856-136085520-277248736
1675.19-388245408-364386176-233162864-120887352-94796832-132200960-180946064
1670.70-228290304-294279168-362168704-365296000-276195616-154154720-65548516
1666.20-24392138-11341573-16125222-52037656-127852632-211642400-239777744
1661.70-188633312-106761496-47867748-21515030-12271325-11010449-15682937
1657.20-22692888-38217820-87039024-198152480-390425568-665442688-960357824
1652.70-1073741824-862201344-514835808-248272464-116235824-98185648-157114000
1648.20-252497008-350507744-431101120-471142048-431692160-307514496-163675024
1643.70-68178816-32292236-25820172-23494742-23607988-26399918-27813028
1639.20-37833424-72613472-130171624-205180624-317666208-473521216-583022848
1634.70-521056448-330798752-156196944-58881008-21174706-9921995-6376236
1630.20-6323616-18997296-57200208-111136112-142944032-125874064-78002328
1625.70-43583412-59293632-133093888-226264944-265147504-216319968-127389280
1621.20-58793616-27202108-17764438-19969072-49707844-138680384-289917696
1616.70-422230656-410487008-267296592-122319440-42641788-14265479-5210159
1612.20-1953205-3399034-9711196-22103276-36631780-41926164-35157184-27812128
1607.06-25873888-21466930-10707056-2299746-2966038-9155722-14984706-17485034
1601.91-15091395-9078689-3465340+479818+4314639+6811427+5439903+1809683
1596.77-1469665-6045675-13411249-19594848-19804230-14313715-6795650-1126041
1591.63+88680-1918366-2674405-355597+2743991+5494896+8554325+10316836+9256504
1585.84+8070548+8998794+9541783+8289233+7888681+8517213+7519662+6338163+7203600
1580.06+6212490+36987-12405282-48822016-144317632-304983680-446749920
1575.56-437846432-289645824-135632000-48000440-16919812-10531043-23547912
1571.06-80278472-190228112-302054112-325864000-242041584-126316936-48737852
1566.56-27458252-50464676-91605600-115282472-99971336-61224628-35893544
1562.06-59219880-164395856-374237376-659414912-911245376-1026885120-988537472
1557.56-803967552-530433344-299871360-206660784-243247008-309280736-292577312
1553.06-192641280-92313224-49043588-70158232-125221312-161260096-143787360
1548.56-89682032-40200096-23628112-54515788-134182072-229215504-280627904
1544.06-281211552-298467104-381106272-495168704-575494848-631450752-718825344
1539.56-806459456-762423552-553391744-312267744-144055520-64455372-57256520
1535.06-113258416-220803312-328884320-356489344-284108864-178934064-100051496
1530.56-56115036-42386868-63444264-110810504-153021376-174445616-198246976
1526.06-241252560-273961184-259447408-220881664-223002416-302408608-438630112
1521.56-564246464-597822400-504794560-342885920-218141536-200685632-277049728
1517.06-352628768-342410592-265519216-182816512-120139920-89171256-102290224
1512.56-142020976-162190960-148816624-139484080-166113248-227493936-318645312
1508.06-450611008-624016832-785431168-826724800-688177856-448012608-229587584
1503.56-93256520-36815860-28802728-33276602-35490260-54463556-111513088
1499.06-183348048-217586080-216269312-238146416-293446784-304801312-220868048
1494.56-104102144-27673286-856624-7348011-49426276-135138736-238450048
1490.06-298624288-282574624-227921120-191287344-182672928-166389856-116927648
1485.56-54514012-11496705+6334212+11637693+9667164-3250976-22067810-31207464
1480.42-23185330-6345389+7993451+10513641-13755026-74775512-148396816
1475.92-183627840-171182768-168717648-228277296-336446464-423610528-424181568
1471.42-331336416-194663824-77191304-12479499+7781330+11497140+12547894-435926
1466.28-47848412-132579976-214010272-223096528-147446016-56129856-5663041
1461.78+7905711+5452056-19126688-80791016-174811056-293699264-442881344
1457.28-594782592-647800960-535329728-340869216-174809904-74529088-30879816
1452.78-21774452-24831112-22934462-10024670+3496786-4481809-46107604-100862832
1447.64-124378736-95869720-42425032-1602981+15412828+19396874+21219348+22231156
1442.49+21065424+19806730+19926352+19307670+17873216+14199761-12804699
1437.99-99899352-250372720-378838432-365013408-226845104-91124192-24108358
1433.49-8872049-6793534-4380423-12187749-39187652-75817736-94654880-75583488
1428.35-33447162-627189+12133419+15615063+11317159-12188654-50240564-75501080
1423.21-68967640-39097196-10679281-17472690-92384264-230677616-352181088
1418.71-357056608-260419376-157002832-91805336-51928648-20334824+2588148
1414.21+14404794+18309238+16299819+9727116+3834704+2917448+5479097+8772595
1409.07+12440804+16230864+18843226+16871836+2325952-30037436-66586248-77972336
1403.92-52912272-14823152+9687097+17894588+15362805-7004879-58780576-119437968
1398.78-146132208-123230880-80881464-57904428-73039784-121920976-174686512
1394.28-185571024-136888048-63560476-10223368+10742888+13625144+13824187
1389.78+12107069-5032555-50179336-110477840-142680048-117160720-58473656
1385.28-10559726+11589876+18291224+19461640+18225418+17492826+18153202+16987354
1380.14+12788749+7942206+3519707+152956+290154+1732016-5742900-29977518
1375.00-65725196-95928112-101883944-77425696-37248804-4448821+10826311+13339865
1369.85+7907080-4083806-14380641-11743872+1396347+12520778+16929060+15208017
1364.71-649921-38018312-82505032-105858392-99174000-78358064-56327064-32679560
1359.57-8686844+7496097+12898749+14020960+16112023+16643563+12448267+6677523
1354.43+5026434+8717987+14295492+18390772+20221538+20200454+18243738+14493673
1349.28+10973219+10629023+13953437+17997176+19869522+19850728+19746690+19853020
1344.14+19639754+19788242+20233608+16648751+2711668-22285102-49433124-65727856
1339.00-64614988-50865884-34871316-22932060-13535497-2663200+9099958+17200092
1333.86+19777702+19857450+20549310+21611302+21758838+21158208+20442492+19753870
1328.71+19418564+19666184+19837742+19448046+19203656+19688028+20322540+20566578
1323.57+20627402+20580942+20161798+18983878+15804958+9284955+1059510-4224854
1318.43-3925798-180987+3795840+7258174+10372390+12015076+10922067+7656347
1313.29+4612727+4513108+8350674+14241528+19017628+21096910+21029964+19936282
1308.14+18796952+18609278+19670612+21071386+21884820+22304862+22941558+23736618
1303.00+24192778+24131562+23775176+23381818+23046032+22782940+22610572+22375056
1297.86+21719238+20655978+19953700+20309400+21310146+21856994+21541284+21010552
1292.72+20994196+21406298+21615736+21367622+20923736+20156144+18363594+15771097
1287.57+14263327+15328034+17992138+20082344+20782670+20744312+20561076+20406734
1282.43+20491394+20821338+20966532+20680276+20296564+20197244+20344544+20520274
1277.29+20628624+20676456+20695864+20774570+20977536+21037150+20217718+17999006
1272.15+15125518+13325692+13499415+14754839+15723964+16148941+16586652+17216422
1267.00+17710794+18012442+18529416+19419788+20150032+20180592+19750050+19268570
1261.86+18298246+16334603+14459524+14587586+16836588+19213736+20214970+20242930
1256.72+20207636+20170046+19816506+19289646+19082540+19466068+20144836+20480238
1251.57+20223218+19814522+19710484+19808868+19860046+19898548+19937962+19854088
1246.43+19761202+19879450+19924364+19359604+18346800+17806202+18381612+19767772
1241.29+21070162+21551680+21103484+20208858+19436894+18947074+18564232+18265112
1236.15+18376420+19181052+20421404+21399114+21702270+21614820+21564370+21437638
1231.00+20867644+20006258+19445142+19446212+19746842+20075012+20348822+20393900
1225.86+19979364+19281552+18909964+19245660+20018634+20717260+21162790+21430756
1220.72+21430756+20948652+20082956+19394430+19492802+20465874+21688968+22309602
1215.58+22076256+21544646+21276362+21090032+20479932+19529768+18928748+19156002
1210.43+20018634+20965158+21599074+21871212+21887114+21668634+21288742+21187552
1205.29+21890630+23263406+24496570+25018694+24977972+24780502+24664326+24776218
1200.15+25096004+25271910+25050230+24744070+24793362+25089574+25193522+24995574
1195.01+24783718+24897910+25514586+26504516+27441198+27996112+28245026+28410268
1189.86+28538726+28584562+28468980+28019716+27261620+26689556+26786988+27433232
1184.72+28165782+28734802+29102314+29326800+29677368+30365922+31120034+31525948
1179.58+31659174+31791484+31838910+31682810+31599776+31787184+32013290+32166650
1174.44+32512698+33048600+33296318+33061962+32763128+32742248+32813956+32727200
1169.29+32652726+32920986+33466804+33878932+34039012+34373636+35161824+35927816
1164.15+36011916+35506592+35121868+35352728+36170588+37220516+38001588+38237476
1159.01+38273336+38659308+39364924+39944152+40342092+40846524+41408216+41713920
1153.87+41797136+42011344+42532292+43239292+43862132+44058312+43659024+42986748
1148.72+42585784+42611216+42811924+43049036+43469192+44176456+45043912+45833876
1143.58+46348356+46478032+46207564+45577364+44691064+43796736+43182244+42881448
1138.44+42669176+42460000+42471556+42852316+43446064+44037332+44476008+44489740
1133.30+43833752+42809768+42141572+42059576+41959872+41215324+39930912+38651612
1128.15+37688792+36995328+36450752+35993468+35560088+35039488+34367492+33634996
1123.01+32965826+32244636+31198296+29895156+28865578+28435406+28205478+27579420
1117.87+26602550+25828032+25414908+24814330+23525324+21888488+20833870+20877274
1112.73+21594640+22085736+21724438+20444478+18590954+16628458+14846170+13312893
1107.58+12172412+11714596+11823636+11692057+10685650+9319339+8724376+9144686
1102.44+9596864+9129168+7884727+6737103+6300324+6440741+6475847+5802694+4517056
1096.65+3332245+2687996+2264808+1689088+1302769+1649194+2538377+3248157+3423014
1090.87+3144796+2298946+612030-1546019-3064453-3204650-2509950-2156773-2509647
1085.08-2802207-2322463-1379369-904509-1414215-2615651-3742957-4162806-3917928
1079.30-3759002-4469703-6088321-7844640-8813136-8685937-8019932-7664498
1074.16-7882117-8261696-8465668-8622185-8918877-9329113-9851328-10592030
1069.01-11570950-12680116-13744170-14456007-14528956-13995341-13136796
1064.51-12231498-11628289-11707055-12430323-13280359-13898554-14393002
1060.01-14903627-15303558-15333090-14766789-13621741-12336192-11455357
1055.51-11130287-11233215-11704943-12336494-12620686-12253523-11310786-9781865
1050.37-7681425-5710534-4856752-5165381-5665461-5537804-4792299-3986944
1045.23-3695731-3964242-4157055-3751130-3035686-2427263-1506933+289548+2384519
1039.44+3536860+3571318+3678188+4773251+6304882+7213328+7502939+7939924+8408620
1033.66+7833940+5995808+4140935+3327691+3444265+4259217+5983501+8232354+9837745
1027.87+10321249+10401614+10691891+10983572+11090906+11366492+12081633+12997328
1022.73+13713841+14061352+14134671+14200675+14476142+14880477+15161964+15252547
1017.59+15313852+15433569+15458580+15232417+14904720+14820097+15032958+15160134
1012.45+14925457+14605880+14594448+14759414+14671744+14282230+13917008+13723901
1007.30+13529893+13260778+13119831+13246758+13426419+13334835+13045017+13022618
1002.16+13513131+14164243+14454951+14319883+14055409+13811994+13489051+13025666
997.02+12491531+11959333+11481455+11108263+10779423+10349711+9860723+9570237
991.87+9522307+9274305+8387936+7168332+6567793+7213176+8726354+10193707
986.73+11060000+11302237+11005192+10278481+9468748+8914061+8511586+8019149
981.59+7644640+7817975+8536987+9442579+10245302+10587315+9976075+8588243
976.45+7656042+8238286+9878528+11139474+11223670+10569658+10116240+10376043
971.30+11089078+11613326+11724800+11904656+12704957+14056779+15407186+16267934
966.16+16472677+16180366+15783145+15673021+16031174+16866648+17990916+18899270
961.02+19099950+18729454+18456734+18654934+19091398+19516480+20008702+20565048
955.88+20944984+21217208+21850418+22847644+23361164+22768260+21711596+21346222
950.73+21907144+22718398+23252546+23409202+23103854+22459932+22106072+22474000
945.59+23078310+23187686+22863246+22698974+22937274+23407980+23962010+24465198
940.45+24678254+24487084+24025820+23452190+22870280+22432098+22247366+22216782
935.31+22153626+21985582+21758378+21568344+21451088+21231422+20690056+20039106
930.16+19881282+20379690+20938258+21112500+21304950+21958674+22607056+22503516
925.02+21817086+21459192+21905308+22796096+23471776+23448060+22666550+21689732
919.88+21339494+21838802+22637492+23145462+23174528+22739504+22055304+21683614
914.74+22010046+22675112+23068826+23185542+23415014+23719942+23646346+23038232
909.59+22279630+21833296+21752570+21719850+21524008+21363952+21525080+21918764
904.45+22231616+22383924+22482872+22480118+22230390+21787884+21345306+20971424
899.31+20570092+20092736+19774798+20018020+20782976+21276972+20786034+19675960
894.17+18896980+18692196+18560108+18269388+18015496+17801316+17556168+17685304
889.02+18622868+19960574+20739116+20504380+19611798+18646230+17944966+17525184
883.88+17290900+17355306+17964202+18804894+18859718+17653858+16255119+16086089
878.74+16991322+17509462+16934402+15989831+15407186+15007188+14462116+14030867
873.60+14104641+14622805+15155560+15308210+15062236+14861570+15150833+15799162
868.45+16384644+16834756+17110814+16620371+14999717+13204093+12586132+13021248
863.31+13206227+12754014+12666416+13548029+14506631+14319577+12995347+11647438
858.17+11148305+11439277+12104480+12947505+13712928+13872808+13400665+13234720
853.03+14256466+16176094+17912144+18589884+18025572+17248014+18364510+22396006
847.88+27135218+28775888+25831248+20173712+14675100+11309698+10812915+12313305
842.74+13522274+12642953+10206187+8622771+10105129+14504039+18849180+20070580
837.60+18591106+17694004+18950128+20417280+20273490+19849354+21515296+24971238
832.45+27139046+25554552+20973564+16296005+13348398+11698453+10906081+11933747
827.31+14852268+17331040+17690950+17460620+18276566+18471088+16009664+12831409
822.17+12620255+15527059+18399934+19373962+19362964+19712622+20841512+22777282
817.03+25057424+26314740+25397150+22799460+20122374+18240684+16606486+14250369
811.88+11115267+8390673+7580174+9006400+11440952+13598168+15636110+18304354
806.74+20911970+21580880+19743634+17032526+15145953+14124153+13466195+13712775
801.60+15620857+18272594+19391374
##END=
