##TITLE=Methyl Ethyl Ketone
##JCAMP-DX=4.24
##DATA TYPE=INFRARED SPECTRUM
##XUNITS=cm-1
##YUNITS=Absorbance
##FIRSTX=900
##LASTX=2300
##XYDATA=(X++(Y..Y))
2296 0.053474002
2294 0.054586411
2292 0.055698819
2290 0.056811225
2288 0.057923634
2286 0.059036043
2284 0.060148451
2282 0.06126086
2280 0.062373266
2278 0.063484691
2276 0.064598069
2274 0.065712459
2272 0.066822931
2270 0.067927457
2268 0.069047555
2266 0.070191443
2264 0.071273275
2262 0.072269805
2260 0.073494323
2258 0.075037822
2256 0.075734742
2254 0.075241841
2252 0.077895381
2250 0.084987983
2248 0.080381975
2246 0.050748177
2244 0.013494974
2242 -0.0043331217
2240 0.028375665
2238 0.12665266
2236 0.23639371
2234 0.29493627
2232 0.28456622
2230 0.21037036
2228 0.11631574
2226 0.047887549
2224 0.011593746
2222 0.00042781024
2220 -0.00060227048
2218 -0.0051359232
2216 -0.012381012
2214 -0.020147143
2212 -0.038126539
2210 -0.075282395
2208 -0.12286658
2206 -0.16545264
2204 -0.1824272
2202 -0.15779509
2200 -0.10021797
2198 -0.026069259
2196 0.048053786
2194 0.10726336
2192 0.14338161
2190 0.1512454
2188 0.12935609
2186 0.080527551
2184 0.020645879
2182 -0.030362029
2180 -0.053054493
2178 -0.033750493
2176 0.018707171
2174 0.088676773
2172 0.16270153
2170 0.23284441
2168 0.31018937
2166 0.40842623
2164 0.52625453
2162 0.65270174
2160 0.75834477
2158 0.81238067
2156 0.80342001
2154 0.73450613
2152 0.6401732
2150 0.560633
2148 0.51560497
2146 0.50889182
2144 0.50902003
2142 0.48049212
2140 0.42100665
2138 0.34450898
2136 0.28239429
2134 0.26267132
2132 0.27546
2130 0.2981112
2128 0.31197038
2126 0.30668867
2124 0.29827675
2122 0.30767727
2120 0.33678743
2118 0.37766442
2116 0.41190171
2114 0.4207449
2112 0.39887321
2110 0.34797525
2108 0.27751151
2106 0.20051178
2104 0.13350326
2102 0.091065221
2100 0.074776337
2098 0.080749601
2096 0.10332943
2094 0.13703537
2092 0.17915329
2090 0.2255884
2088 0.26186725
2086 0.27350101
2084 0.2631264
2082 0.24223801
2080 0.23040824
2078 0.24510561
2076 0.28284258
2074 0.3296665
2072 0.3636376
2070 0.36346084
2068 0.32242781
2066 0.24409735
2064 0.1494628
2062 0.063218474
2060 -0.0032533249
2058 -0.048339751
2056 -0.086843289
2054 -0.13690716
2052 -0.20302556
2050 -0.28072259
2048 -0.35337326
2046 -0.40181428
2044 -0.416816
2042 -0.39767376
2040 -0.36072931
2038 -0.32719135
2036 -0.308824
2034 -0.30900571
2032 -0.31473899
2030 -0.30970541
2028 -0.29279819
2026 -0.27203664
2024 -0.2638731
2022 -0.28444484
2020 -0.33428872
2018 -0.40518686
2016 -0.48238403
2014 -0.55047607
2012 -0.6021263
2010 -0.63359118
2008 -0.64011312
2006 -0.6171689
2004 -0.56409121
2002 -0.4863117
2000 -0.40733469
1998 -0.35587874
1996 -0.34742785
1994 -0.38437319
1992 -0.44190115
1990 -0.48685634
1988 -0.50347197
1986 -0.4898372
1984 -0.46435714
1982 -0.45115688
1980 -0.45950964
1978 -0.48972365
1976 -0.53706056
1974 -0.59437329
1972 -0.65254873
1970 -0.70213842
1968 -0.73592299
1966 -0.7508027
1964 -0.75639826
1962 -0.76631916
1960 -0.78441882
1958 -0.80757707
1956 -0.82584983
1954 -0.82888025
1952 -0.8176555
1950 -0.79913318
1948 -0.78011566
1946 -0.76503253
1944 -0.75042129
1942 -0.72985435
1940 -0.70162451
1938 -0.66771883
1936 -0.63418829
1934 -0.60872871
1932 -0.59783721
1930 -0.60653341
1928 -0.6366787
1926 -0.68600047
1924 -0.74140596
1922 -0.78587747
1920 -0.81004786
1918 -0.81154364
1916 -0.79844075
1914 -0.77958894
1912 -0.74427056
1910 -0.67357856
1908 -0.56182724
1906 -0.41838965
1904 -0.2822904
1902 -0.20029162
1900 -0.18384974
1898 -0.21830054
1896 -0.26742715
1894 -0.29018727
1892 -0.26950681
1890 -0.20457011
1888 -0.10186585
1886 0.027760576
1884 0.16680112
1882 0.29508337
1880 0.39644155
1878 0.45733622
1876 0.46407902
1874 0.40602913
1872 0.28751674
1870 0.12993509
1868 -0.0089667961
1866 -0.061093993
1864 -0.004404081
1862 0.14496683
1860 0.33299959
1858 0.49310192
1856 0.59098774
1854 0.61548477
1852 0.56176478
1850 0.43058068
1848 0.2400164
1846 0.023560826
1844 -0.16355231
1842 -0.26385581
1840 -0.26522145
1838 -0.18963784
1836 -0.078921713
1834 0.022351531
1832 0.098929778
1830 0.15739557
1828 0.21429417
1826 0.28710595
1824 0.37870151
1822 0.48060361
1820 0.57770258
1818 0.65248859
1816 0.69093227
1814 0.68538362
1812 0.64514905
1810 0.59126878
1808 0.54892975
1806 0.53602302
1804 0.5306406
1802 0.48762536
1800 0.37735212
1798 0.19647351
1796 -0.0007827878
1794 -0.12974958
1792 -0.13674919
1790 -0.010287117
1788 0.18575436
1786 0.34779906
1784 0.41233158
1782 0.35888875
1780 0.20971063
1778 0.01238618
1776 -0.18576917
1774 -0.34109885
1772 -0.41108051
1770 -0.36602408
1768 -0.23338182
1766 -0.079071127
1764 0.040467761
1762 0.085125916
1760 0.034194503
1758 -0.11169057
1756 -0.31042457
1754 -0.50369704
1752 -0.68929565
1750 -0.90284598
1748 -1.147917
1746 -1.3966322
1744 -1.6132948
1742 -1.7658062
1740 -1.8459897
1738 -1.8604249
1736 -1.80022
1734 -1.6473757
1732 -1.4072981
1730 -1.1081688
1728 -0.79210097
1726 -0.50464702
1724 -0.2716538
1722 -0.10090859
1720 0.0084316581
1718 0.078296654
1716 0.20943657
1714 0.5327149
1712 1.0360204
1710 1.5993793
1708 2.163852
1706 2.7556801
1704 3.4892042
1702 4.5656362
1700 6.3141427
1698 9.0516157
1696 12.596143
1694 16.368059
1692 19.869951
1690 22.829451
1688 25.424429
1686 28.161379
1684 31.466105
1682 35.518162
1680 39.90876
1678 43.879551
1676 47.221714
1674 50.283924
1672 53.522224
1670 57.308609
1668 61.600922
1666 66.023651
1664 70.278282
1662 74.206253
1660 77.722412
1658 80.793556
1656 83.438599
1654 85.727448
1652 87.793617
1650 89.783524
1648 91.664246
1646 93.24118
1644 94.33313
1642 94.811523
1640 94.612061
1638 93.727821
1636 92.185791
1634 90.045059
1632 87.432472
1630 84.503357
1628 81.279564
1626 77.663322
1624 73.614883
1622 69.19902
1620 64.597496
1618 60.071323
1616 55.820572
1614 51.956429
1612 48.525177
1610 45.515862
1608 42.865063
1606 40.478703
1604 38.303127
1602 36.335506
1600 34.589333
1598 33.07851
1596 31.796499
1594 30.716412
1592 29.816326
1590 29.086273
1588 28.521261
1586 28.114851
1584 27.840868
1582 27.65699
1580 27.540447
1578 27.49946
1576 27.578228
1574 27.844513
1572 28.329266
1570 29.011108
1568 29.822441
1566 30.665129
1564 31.475035
1562 32.267521
1560 33.253349
1558 34.787415
1556 36.987
1554 39.644402
1552 42.350258
1550 44.613438
1548 46.268356
1546 47.514179
1544 48.524738
1542 49.360916
1540 50.059101
1538 50.641834
1536 51.06123
1534 51.206139
1532 51.025639
1530 50.547249
1528 49.779011
1526 48.69215
1524 47.276978
1522 45.571232
1520 43.708828
1518 41.90427
1516 40.292812
1514 38.86816
1512 37.45536
1510 35.743629
1508 33.5457
1506 30.890835
1504 28.003702
1502 25.251287
1500 22.825285
1498 20.66106
1496 18.618
1494 16.544769
1492 14.36342
1490 12.094597
1488 9.8127384
1486 7.6300201
1484 5.6609221
1482 3.9978533
1480 2.64592
1478 1.5290473
1476 0.67219073
1474 0.22892568
1472 0.26677376
1470 0.70089662
1468 1.3791703
1466 2.1184735
1464 2.8016646
1462 3.4066958
1460 3.9354482
1458 4.3964882
1456 4.8116598
1454 5.2121863
1452 5.5989938
1450 5.9331512
1448 6.1812353
1446 6.3282571
1444 6.3630428
1442 6.2722397
1440 6.0306053
1438 5.6030779
1436 4.9806089
1434 4.2004209
1432 3.3509407
1430 2.566669
1428 1.93606
1426 1.4675307
1424 1.1406205
1422 0.92445791
1420 0.81671989
1418 0.85459614
1416 1.0631955
1414 1.433606
1412 1.9232806
1410 2.4575441
1408 2.983716
1406 3.4902384
1404 3.9722657
1402 4.4211817
1400 4.823616
1398 5.1639881
1396 5.4471216
1394 5.7057962
1392 5.9629993
1390 6.2152853
1388 6.4350729
1386 6.5701952
1384 6.5784898
1382 6.4421134
1380 6.1565485
1378 5.732337
1376 5.2001686
1374 4.617672
1372 4.0543838
1370 3.5796382
1368 3.2078404
1366 2.8704278
1364 2.4886122
1362 2.0069346
1360 1.4376469
1358 0.88511324
1356 0.44476759
1354 0.1600199
1352 0.030609874
1350 0.0071890894
1348 0.039463166
1346 0.094054826
1344 0.14681321
1342 0.18486676
1340 0.21288063
1338 0.25847933
1336 0.34680343
1334 0.48748007
1332 0.66813552
1330 0.84867102
1328 0.99839216
1326 1.1135179
1324 1.2030017
1322 1.2863336
1320 1.3832469
1318 1.5083349
1316 1.66842
1314 1.8582162
1312 2.0628498
1310 2.257143
1308 2.418216
1306 2.532855
1304 2.5981457
1302 2.6259391
1300 2.6333523
1298 2.6404092
1296 2.662643
1294 2.705858
1292 2.7690053
1290 2.8434796
1288 2.9223919
1286 3.0053194
1284 3.0975664
1282 3.2110112
1280 3.3520291
1278 3.5143225
1276 3.6862872
1274 3.853838
1272 4.0153737
1270 4.1931109
1268 4.4148369
1266 4.7066216
1264 5.0809073
1262 5.5257816
1260 6.0249758
1258 6.565865
1256 7.1431713
1254 7.7629228
1252 8.4282856
1250 9.1317015
1248 9.8611593
1246 10.60075
1244 11.334966
1242 12.050023
1240 12.727029
1238 13.340357
1236 13.863342
1234 14.272601
1232 14.54588
1230 14.669477
1228 14.634717
1226 14.447521
1224 14.118491
1222 13.663325
1220 13.099043
1218 12.44977
1216 11.744057
1214 11.023183
1212 10.326442
1210 9.6784697
1208 9.0869551
1206 8.5300798
1204 7.9763885
1202 7.3905001
1200 6.7509556
1198 6.0678272
1196 5.364243
1194 4.6734676
1192 4.0220389
1190 3.416857
1188 2.859005
1186 2.3476973
1184 1.8892149
1182 1.5059413
1180 1.2227397
1178 1.0603776
1176 1.0240999
1174 1.0863342
1172 1.2032528
1170 1.3142847
1168 1.3684371
1166 1.3467685
1164 1.2538226
1162 1.1280071
1160 1.0076185
1158 0.91036582
1156 0.83692628
1154 0.76082242
1152 0.65778589
1150 0.52411062
1148 0.36834818
1146 0.21563643
1144 0.091744475
1142 0.014020492
1140 -0.0081893513
1138 0.021733031
1136 0.10907041
1134 0.28443468
1132 0.5648638
1130 0.92068619
1128 1.3112766
1126 1.6976578
1124 2.0524194
1122 2.3747187
1120 2.668272
1118 2.9322033
1116 3.1658001
1114 3.3720586
1112 3.5590422
1110 3.7449255
1108 3.9492767
1106 4.1876502
1104 4.4666696
1102 4.7726855
1100 5.0883374
1098 5.3995895
1096 5.703743
1094 6.0241504
1092 6.3853698
1090 6.7973437
1088 7.2557936
1086 7.72892
1084 8.1813679
1082 8.5856352
1080 8.9222298
1078 9.1875458
1076 9.3829432
1074 9.5130911
1072 9.5843821
1070 9.6064453
1068 9.5927849
1066 9.5654736
1064 9.5414562
1062 9.5162134
1060 9.4735956
1058 9.3789454
1056 9.2034454
1054 8.9476423
1052 8.6230383
1050 8.251152
1048 7.8533335
1046 7.4423714
1044 7.0324445
1042 6.6464443
1040 6.3059683
1038 6.0213785
1036 5.7940202
1034 5.6064134
1032 5.4360166
1030 5.2598996
1028 5.0548625
1026 4.7981691
1024 4.4734359
1022 4.0835891
1020 3.6456592
1018 3.2042806
1016 2.8019085
1014 2.453548
1012 2.1556602
1010 1.870134
1008 1.562252
1006 1.2341148
1004 0.90185463
1002 0.5946036
1000 0.33160973
998 0.090623185
996 -0.15378998
994 -0.40454781
992 -0.65269399
990 -0.86941141
988 -1.0295957
986 -1.1360528
984 -1.1983857
982 -1.2268809
980 -1.2323279
978 -1.2258557
976 -1.2140429
974 -1.1867129
972 -1.1239103
970 -0.98818624
968 -0.75373995
966 -0.44977701
964 -0.12391667
962 0.15965971
960 0.3474488
958 0.43688107
956 0.44153342
954 0.38711846
952 0.30053717
950 0.20240384
948 0.11280706
946 0.055011429
944 0.035171311
942 -0.0034989566
940 -0.11110592
938 -0.25753361
936 -0.39511371
934 -0.48522675
932 -0.50491697
930 -0.48061082
928 -0.45284253
926 -0.46854401
924 -0.55853701
922 -0.68751556
920 -0.80575031
918 -0.87143093
916 -0.85314029
914 -0.75158572
912 -0.57909358
910 -0.36173767
908 -0.13421458
906 0.048648
904 0.13724703
902 0.12237272
900 0.020461284
898 -0.090459898
896 -0.11695
