##TITLE=octarelline 6 front
##JCAMP-DX=4.24
##DATA TYPE=INFRARED SPECTRUM
##DATE=1/2/2005
##TIME=4:42:48
##SAMPLING PROCEDURE=film
##ORIGIN=Vincent
##DATA PROCESSING=no operation
##XUNITS=1/CM
##YUNITS=ABSORBANCE
##RESOLUTION=2
##FIRSTX=4000.283
##LASTX=800.31372
##DELTAX=-0.64282227
##MAXY=0.19581138
##MINY=0.0051314146
##XFACTOR=1
##YFACTOR=1.8236355e-010
##NPOINTS=4979
##FIRSTY=0.027189502
##XYDATA=(X++(Y..Y))
4000.28+149095045+149066192+148901168+148687984+148547616+148403040+148084752
3995.78+147697472+147492848+147413248+147280976+147290336+147678592+148071616
3991.28+147885664+147230384+146794048+147010544+147749136+148564704+148987632
3986.78+148834688+148387920+148045024+147918896+147976288+148164960+148204224
3982.28+147775856+147096752+146751456+146903792+147263456+147660176+147990336
3977.78+147887024+147211376+146539072+146506624+146967056+147336080+147402080
3973.28+147319328+147216496+147144768+147072000+146800368+146280640+146050176
3968.78+146771088+148224480+149330800+149343808+148534480+147662144+147303792
3964.28+147657008+148331120+148428880+147587680+146753120+147033024+148104064
3959.79+148748576+148579200+148113296+147636160+147143568+146953776+147234016
3955.29+147414160+146968112+146293152+146102240+146423728+146704064+146477920
3950.79+145743808+145003744+144791472+144916384+144649680+143935744+143709120
3946.29+144636128+146130752+146991376+146530448+144965712+143218384+142419424
3941.79+143142864+144893168+146520048+147235536+147173008+147042400+147370512
3937.29+148114944+148822912+149075264+148815504+148215264+147108384+144988640
3932.79+142068176+139824960+139555536+140801648+142201984+143362512+144801440
3928.29+146588720+148057104+148400464+147058256+144237184+141302880+139805680
3923.79+140108432+141663664+143863056+145620064+145437184+143276576+141157840
3919.29+140587824+140525184+139136080+136560688+134910848+135952544+139378240
3914.79+143262720+146003536+147486208+148329904+148816400+148980208+148946512
3910.29+148720320+148404560+148535680+149193584+149286528+147708192+144205824
3905.79+138426640+130180896+121584440+116175480+114652888+114514816+114562784
3901.29+115934336+118262408+119193128+118706832+120041808+125124576+132114024
3896.79+138280720+142672896+145439296+146774864+147025488+146162144+142828752
3892.29+135692880+126644600+120959936+122432784+129350016+136960432+142081136
3887.79+143124624+138179472+127177600+115390304+110533120+115066256+124371448
3883.29+132774912+137739680+138516464+134861712+128699976+124548984+125932592
3878.79+132002840+139129024+144777312+148324480+149088864+145908160+139211792
3874.29+132217856+128960536+130792800+134455424+133726344+124427376+109172552
3869.79+96763960+95180904+104864952+119432512+131174032+135090208+130604456
3865.29+122099256+116639488+118276424+124283360+128852656+130015096+130816800
3860.79+134111208+139032544+143174960+145180704+144671408+142515712+140408048
3856.29+136224432+121923408+92486832+56743452+32488286+28138378+37712432
3851.79+54387592+76474032+100655752+120581392+133256136+140664160+145292336
3847.29+148012688+149374352+149564768+147663344+143181456+137816688+134320848
3842.79+133625752+133725144+132108472+129076976+126417376+122154704+111178376
3838.29+94373064+82510904+84848584+97094392+108281816+114769512+120510024
3833.79+127406256+132065720+131658232+128376656+127186432+130821448+137561296
3829.29+143447984+145898800+144887120+141805424+138661184+137613344+139371168
3824.79+142260448+143844672+142237840+135423296+122332352+106615080+96411832
3820.29+97292080+107318232+120365032+130245368+131014744+119431464+100690984
3815.79+87963744+90976520+106550064+124120344+136709200+143757504+147364016
3811.29+149139936+149897168+150138304+149465168+145442624+135137536+120070776
3806.79+108412704+108198640+118325944+130454528+138105488+138977024+131115992
3802.29+113896648+93852536+83488928+89744840+107068472+124706328+136074736
3797.79+140068080+138536480+135144592+134049176+136880000+141623424+145470832
3793.29+147692496+149183616+150586304+151828384+152688928+153045232+152942144
3788.79+152670176+152443008+152104368+151390272+150197712+148548064+146829072
3784.29+145922192+146360640+147601424+148727104+149109104+147883712+144274288
3779.79+139427440+136407648+137206560+140916720+145382720+149155360+151614624
3775.30+152756128+153103056+153075344+152733264+152202704+151040880+147412656
3770.80+140089760+131580536+127031160+129052696+135120848+140374608+141712160
3766.30+139556288+136992304+137007952+139967984+143986256+147306352+149335648
3761.80+149616176+147133600+141577488+135110336+131556984+132575608+135692416
3757.30+137561296+137910384+138740784+140947888+142678928+139331120+125868840
3752.80+103373144+82929600+75512368+77249984+75392512+68045696+66818948
3748.30+79523656+100128064+116958080+120303672+104016304+71761768+42763644
3743.80+38922252+61259280+91309688+113888008+126804184+134004128+138465600
3739.30+140774544+139577664+133117128+122067432+110039216+100883352+97033032
3734.80+99541584+106445112+112008296+111663880+107812744+107740424+115204512
3730.30+126863920+137303264+143979008+146668592+145428880+141134336+136460576
3725.80+134335120+135514656+138357744+140393728+139945696+137507616+135849744
3721.30+137359632+141120480+144131184+145121104+145421200+146517632+148532064
3716.80+150729040+152034304+151657584+149819632+146368640+138916528+125786216
3712.30+111381560+104080528+106535952+112910528+117719464+121854368+128188056
3707.80+136133968+143068240+147772992+150470464+151687824+152090272+151783616
3703.30+149600752+144650000+138629296+135186960+136567584+141566176+147025344
3698.80+150768528+152701360+153577936+153758720+153444880+152966528+152377184
3694.30+151656816+150978736+149398976+144628128+136599008+129285280+124978864
3689.80+119114632+106744680+92769312+89190832+100761624+119694752+135893488
3685.30+145714832+150614128+152811072+153852448+154669216+155267744+154911728
3680.80+152968640+149606656+146126400+144237648+143428080+139092448+125852512
3676.30+104495912+84549696+77427272+86495888+105427208+124157152+133873632
3671.80+130178048+116412912+102804096+98209624+103160424+113303792+125644224
3667.30+138264928+148367376+154272848+157064272+158466608+159099184+159347936
3662.80+159689136+160014752+160251264+160842416+161631328+161863024+161469104
3658.30+159923504+154628160+144315312+133587312+129799376+135085408+144996800
3653.80+153983744+158530944+156818048+148924608+136777152+122680848+109187408
3649.30+100117256+98534624+103418800+111317304+120776560+132224464+144561168
3644.80+154942336+161579392+164850624+166093616+166605392+167330128+168497632
3640.30+169592080+170022416+169742368+169287696+169421696+170536544+172147328
3635.80+173023344+172087504+169470304+166829024+166220864+168079584+170016320
3631.30+167701712+157522832+139850544+120821952+109699264+112050832+125406592
3626.80+142497920+157380000+167844880+174267248+177920896+179903616+180776976
3622.30+180646976+178942880+174396144+166735712+158652000+154201520+154815680
3617.80+158710432+163999056+169746352+174448544+176530928+176232848+174720736
3613.30+172306944+169918288+170256160+173981216+176793264+174274128+168145872
3608.80+164352480+165845696+170555296+175748672+180901952+186320720+191447712
3604.30+195201488+196996336+197082096+196250512+195369920+195063920+195493344
3599.80+196243568+196846784+197533280+198751968+199901936+199731664+198242208
3595.30+196922160+196854960+197828512+199415408+201590944+204181872+206496928
3590.81+207379472+205436272+200242224+193597216+188390320+186040144+186291712
3586.31+189129872+194738080+201789952+207826912+211597168+213786848+215474064
3581.81+216817472+217384720+217206224+217115088+217854432+219157632+220260976
3577.31+221015456+221712864+222224112+222303904+222361232+223019600+224283184
3572.81+225767824+227169360+228186768+228532832+228007120+226021584+221744192
3568.31+215610352+209928624+207014176+207462800+210736016+216017824+221947376
3563.81+226965888+230627888+233559952+235952016+237243840+237443328+237616816
3559.31+238680560+240344400+241653840+242267888+242813904+243911920+245283232
3554.81+246121280+246003072+245080144+243832656+243072784+243621328+245478544
3550.31+247742272+249519808+250401872+250183200+248951952+247443024+246634000
3545.81+246988432+248414640+250595056+253075040+255430096+257528528+259341728
3541.31+260629680+261274000+261662432+262280384+263137568+263860448+264159216
3536.81+264150800+264412336+265526720+267426832+269444480+271053312+272154112
3532.31+272713504+272742144+272535552+272447680+272575360+272894496+273316352
3527.81+273518400+273364576+273407744+274193760+275359392+276351840+277471040
3523.31+279135072+280718528+281408192+281678848+282672992+284545728+286400064
3518.81+287559552+288149024+288634816+289309696+290167808+291124928+292277088
3514.31+293686848+294969568+295656832+295934208+296361792+296929344+297192448
3509.81+297263488+297768864+298867072+300126656+301319104+302609952+303983488
3505.31+305059552+305478752+305295616+305121792+305818464+307592928+309566944
3500.81+310778880+311380448+312196096+313412064+314452576+314988448+315354816
3496.31+316008096+317040064+318286560+319624480+321060128+322543456+323807520
3491.81+324682400+325446112+326366752+326959392+326573664+325706688+325768864
3487.31+327347424+329589024+331487456+332805408+333594592+333806560+333675552
3482.81+333711200+334126688+334781824+335642176+336785632+338109504+339451520
3478.31+340735872+341792704+342406016+342719136+343145856+343786144+344448096
3473.81+345171456+346118560+347104000+347883840+348730944+350048480+351593920
3469.31+352719072+353239936+353569888+354168064+355204768+356517152+357614720
3464.81+357984544+357641120+357181952+357219040+357895168+359014400+360435360
3460.31+362178880+364129120+365765632+366566528+366733088+367077664+367999744
3455.81+369010560+369527168+369638304+369776896+370054304+370268160+370295552
3451.31+370301632+370693056+371731712+373024768+373673856+373289856+372601760
3446.81+372690272+373822400+375369120+376716224+377852160+379124736+380664832
3442.31+382201568+383378176+384102112+384523616+384814400+385152896+385734528
3437.81+386573536+387337216+387661728+387663936+387962720+389076640+390782400
3433.31+392192000+392589216+392184992+391897280+392339584+393216608+393830848
3428.81+394110016+394727840+396044576+397321024+397560544+396907488+396522976
3424.31+397088544+398183936+399168992+399844352+400202176+400266144+400404384
3419.81+401145728+402515904+403962880+404898240+405096480+404797760+404559040
3415.31+404713312+405019200+405254304+405863904+407321088+409053664+409887456
3410.81+409524640+408863360+408813664+409427392+410267520+411084032+411896064
3406.32+412669600+413183808+413319552+413316320+413600032+414375776+415488256
3401.82+416630592+417626944+418522240+419357344+419844896+419532736+418508896
3397.32+417569536+417436128+418090304+419075360+419992896+420571552+420804448
3392.82+421101920+421781472+422496160+422780896+422892800+423410240+424275584
3388.32+424955872+425267264+425355808+425187680+424688288+424205984+424305760
3383.82+425132896+426185664+426770112+426711104+426534720+426805568+427490144
3379.32+428273504+429105536+429943328+430432736+430470528+430595808+431189632
3374.82+431813344+432009600+432112384+432623008+433364448+433923520+434371328
3370.32+434995040+435776608+436557568+437274336+437689472+437390656+436355520
3365.82+435201600+434667072+435032224+436038976+437118432+437805504+438163584
3361.32+438666336+439492064+440260096+440598400+440559456+440308896+439936640
3356.82+439793088+440340512+441403648+442214560+442472256+442710912+443343328
3352.32+444063808+444530240+444977664+445734784+446577728+446972640+446771264
3347.82+446382080+446295424+446577920+446898272+446953472+446717984+446387168
3343.32+446353632+447038752+448355712+449484128+449654240+449025952+448452544
3338.82+448596128+449496864+450653152+451375648+451475168+451490624+451854272
3334.32+452179648+452019648+451721088+451799648+452083552+452178592+452131360
3329.82+452064160+451905728+451814720+452145792+452835840+453564544+454353920
3325.32+455252864+455761920+455411168+454610240+454256864+454767936+455843040
3320.82+456833248+457268320+457302528+457520480+458125536+458744832+459122816
3316.32+459351520+459419712+459283968+459295104+459785216+460506784+461123232
3311.82+461734880+462291904+462306912+461789728+461587232+462216736+463219872
3307.32+464126816+465129408+466351296+467273600+467275840+466316928+464932128
3302.82+463878304+463713728+464411136+465435232+466240640+466609952+466643456
3298.32+466680256+467071200+467793376+468351936+468247072+467475840+466541184
3293.82+466069888+466342304+467075168+467689728+467800640+467400544+466781248
3289.32+466461120+466890496+467866944+468494688+468128512+467075648+466027904
3284.82+465201312+464472928+464024896+464229088+464970656+465540480+465325600
3280.32+464523232+464048512+464536160+465453312+465647680+464831424+463880192
3275.82+463430592+463079520+462426016+461861568+461704736+461547936+461213504
3271.32+461262976+461778368+461804704+460832128+459762144+459526656+459726560
3266.82+459408032+458354688+456958592+455493184+454120672+453135648+452779744
3262.32+452932448+453087552+452720832+451856608+451096864+450750080+450304128
3257.82+449237024+447925952+447061504+446610080+446035584+445162464+444243744
3253.32+443496480+443020832+442862144+442779424+442259648+441103328+439844096
3248.82+439246240+439349024+439307872+438433024+437123520+436299744+436181760
3244.32+436269248+436322464+436457312+436408608+435590144+433975840+432229664
3239.82+430963040+430358240+430296992+430391904+430103680+429304032+428535872
3235.32+428389376+428716992+428694080+427688704+425942240+424367616+423679232
3230.82+423794592+424015360+423618208+422463744+421264192+421009408+421794656
3226.32+422576960+422407488+421409024+420193536+419000544+417837696+416836256
3221.83+416071072+415486912+415118304+414941440+414613824+413900864+413125056
3217.33+412770880+412881920+413141600+413193600+412795680+412003712+411199232
3212.83+410674144+410322464+409919008+409385056+408718144+408033504+407600864
3208.33+407478976+407261856+406552544+405378464+403964960+402564512+401676480
3203.83+401752608+402501312+403014656+402720640+401824992+400868288+400207712
3199.33+399824896+399410208+398723072+397877120+397150944+396632960+396241344
3194.83+395870368+395424544+394867200+394275200+393690336+393089408+392595360
3190.33+392396704+392382976+392234016+391795552+391009888+389742944+388184960
3185.83+386990496+386554880+386531776+386427552+386159008+385775872+385209984
3181.33+384448192+383542912+382472064+381333312+380444544+379959264+379719520
3176.83+379633600+379779616+380056640+380145216+379829792+379118432+378167520
3172.33+377209920+376316000+375326880+374343488+373883072+374055168+374148160
3167.83+373602720+372762816+372115712+371585856+371067264+370821920+370834880
3163.33+370612256+370015488+369523872+369382816+369226528+368748384+368058560
3158.83+367276064+366356256+365366272+364485696+363728192+363026304+362496192
3154.33+362251424+362093280+361740320+361285312+361104960+361289248+361442240
3149.83+361178592+360566624+359994624+359703552+359574624+359318400+358791456
3145.33+358124000+357537280+357053504+356441280+355502752+354322016+353162560
3140.83+352204544+351516576+351217184+351408128+351846496+351934496+351293824
3136.33+350227744+349383008+349056384+348991968+348753376+348082016+347051296
3131.83+346010752+345281024+344910368+344800608+344825728+344622464+343690880
3127.33+342147616+340952256+340906880+341757120+342566336+342586048+341575552
3122.83+339860960+338281888+337594144+337779680+338298880+338807328+339168992
3118.33+339120736+338535520+337803200+337389600+337216416+336858880+336163264
3113.83+335363360+334683360+334047616+333259072+332388544+331833536+331841504
3109.33+332111584+332076640+331451904+330354816+329090080+328025696+327468608
3104.83+327466688+327794880+328129792+328151136+327650080+326775040+326043296
3100.33+325857568+326079744+326192416+325828288+325117888+324574368+324526688
3095.83+324654912+324339968+323512160+322792768+322640320+322795392+322762368
3091.33+322515968+322376864+322445920+322491552+322337056+322105280+321975456
3086.83+321884288+321631328+321169952+320612832+319993152+319243488+318401568
3082.33+317694304+317344096+317289600+317116416+316439328+315431776+314741728
3077.83+314732672+315123776+315510720+315758496+315690144+315008256+313864032
3073.33+312931040+312563776+312426368+312167936+311889120+311725536+311516128
3068.83+311126144+310658720+310319552+310303072+310670496+311087168+310977792
3064.33+310169536+309050368+308027104+307244672+306808704+306690976+306507456
3059.83+305955200+305347552+305155072+305257184+305184256+304825920+304376032
3055.33+303936224+303590464+303506304+303567904+303308288+302515488+301580416
3050.83+301026848+300971616+301134496+301110144+300592992+299550656+298305344
3046.33+297398752+297250176+297795872+298464160+298729664+298621024+298451904
3041.83+298212192+297668000+296882208+296156192+295609888+295213312+294974720
3037.34+294696928+293996768+292965504+292351520+292602560+293168416+293224736
3032.84+292686176+292083392+291771616+291658496+291540864+291369728+291168256
3028.34+290910144+290611680+290398080+290346752+290309888+290087008+289737984
3023.84+289541632+289652384+289904736+289919488+289421088+288618336+288149504
3019.34+288340640+288713344+288633248+288187008+287898496+287907456+287997792
3014.84+288117792+288234912+288022624+287290208+286463616+286152768+286432896
3010.34+286939008+287380160+287640288+287564512+286994912+286086976+285416096
3005.84+285544256+286373664+287153408+287292736+286957568+286625824+286397056
3001.34+286106208+285833120+285867520+286279232+286868224+287468768+288046848
2996.84+288556768+288908224+289135424+289372640+289599968+289631392+289503616
2992.34+289595648+290074368+290525728+290543040+290385888+290604800+291286784
2987.84+292081472+292705760+293064192+293187488+293357344+293902368+294717344
2983.34+295380736+295785376+296214240+296815840+297498656+298213984+298942560
2978.84+299557088+300018464+300527104+301267744+302233120+303367456+304614752
2974.34+305868160+307054144+308151776+309046528+309667840+310272320+311149088
2969.84+312126816+312876864+313530400+314419232+315484448+316514240+317630688
2965.34+318941952+320131712+320928544+321542944+322159232+322479424+322285376
2960.84+321985024+322163968+322848736+323558880+323868160+323708480+323252384
2956.34+322702432+322201504+321829664+321587616+321337088+320870912+320120640
2951.84+319237184+318400608+317613344+316801824+316037600+315539264+315381216
2947.34+315351424+315206560+315037376+315223232+316013824+317200096+318198304
2942.84+318449632+317900640+317159712+317027744+317751520+318906592+319992672
2938.34+320892544+321741152+322651040+323620000+324491232+325038848+325270752
2933.84+325542144+326132320+326886912+327508032+327960224+328350112+328593856
2929.34+328549024+328332800+328284576+328588992+329163616+329850848+330535168
2924.84+331063456+331190208+330738592+329787616+328698944+327895072+327488032
2920.34+327077440+326094880+324466208+322777024+321621728+321020640+320564768
2915.84+319870432+318730176+317115104+315224864+313416704+311950624+310842624
2911.34+309890784+308806880+307488544+306205376+305285440+304632992+303879104
2906.84+302917504+301950016+301087296+300272576+299455648+298551392+297481568
2902.34+296465664+295931488+295928576+295984384+295688320+295063872+294353472
2897.84+293794624+293521440+293366688+292909792+292020960+291058688+290295136
2893.34+289534592+288584192+287678400+287109824+286828032+286663136+286616864
2888.84+286696288+286744128+286641024+286456448+286259072+285962944+285511584
2884.34+285077504+284907744+285012224+285153824+285150944+285076544+285113184
2879.84+285320576+285588576+285744448+285719808+285655136+285793888+286152768
2875.34+286435168+286397376+286152416+285942944+285798080+285613856+285381024
2870.84+285116864+284730976+284156224+283455360+282686080+281803968+280813376
2866.34+279871712+279141440+278697664+278540960+278579264+278600960+278458624
2861.84+278278368+278333728+278668640+278958592+278816352+278252960+277719392
2857.34+277595104+277776480+277940928+278070464+278362912+278765632+278990336
2852.85+278922656+278681056+278395776+278134112+277863392+277328640+276299584
2848.35+275039008+274066848+273433536+272755680+271926048+271111040+270139840
2843.85+268614272+266662096+264940912+263855024+263229040+262697520+262078496
2839.35+261428896+260948336+260711696+260506288+260092080+259512032+258892880
2834.85+258170448+257328176+256662160+256468496+256613168+256671808+256386640
2830.35+255854560+255346496+255013888+254716608+254215408+253543776+253010496
2825.85+252781760+252681216+252456000+252073632+251676944+251393632+251227840
2821.35+251042656+250716336+250308240+250007088+249862800+249708512+249432800
2816.85+249217184+249328624+249684208+249817888+249376352+248523360+247715984
2812.35+247200368+246898512+246695552+246546640+246338960+245901568+245312672
2807.85+244948800+245057328+245428496+245699008+245807920+245888512+245838592
2803.35+245424080+244723632+244065072+243590816+243282352+243237696+243490192
2798.85+243707488+243576192+243242256+242955184+242587568+241950944+241249616
2794.35+240801376+240612448+240553872+240609776+240698512+240612448+240309088
2789.85+239990512+239763632+239501984+239109280+238712896+238510144+238522256
2785.35+238579376+238530240+238400656+238284704+238194336+238103984+238044224
2780.85+238021488+237946816+237759664+237456656+237037648+236627504+236551616
2776.35+236939632+237384192+237373232+236955168+236600672+236562720+236726416
2771.85+236904688+236951712+236714480+236167712+235524656+235047248+234787808
2767.35+234601712+234386192+234201680+234135872+234107728+233966288+233797184
2762.85+233856992+234162816+234394640+234314592+234024096+233706672+233406048
2758.35+233133504+232944848+232847792+232816640+232916992+233177328+233383664
2753.85+233253392+232848592+232557616+232596928+232770176+232863632+232966608
2749.35+233172320+233244160+232920752+232330240+231825120+231553680+231450592
2744.85+231429952+231381600+231201712+230992112+231002896+231340448+231911792
2740.35+232549968+233007456+233017024+232627120+232225248+232040272+231928688
2735.85+231754256+231626272+231673696+231885040+232156688+232290624+232140704
2731.35+231937776+232103024+232568128+232765952+232444448+231970800+231688544
2726.85+231537888+231455904+231617200+232116304+232749056+233197824+233268288
2722.35+232998400+232643872+232482352+232610512+233010288+233647296+234346240
2717.85+234809120+234917056+234794544+234564752+234370976+234566288+235352624
2713.35+236323840+236881312+237046112+237308016+237846256+238435648+238960352
2708.85+239512176+240125680+240792256+241562576+242350080+242919984+243255616
2704.35+243630592+244190896+244808752+245427088+246155888+246933760+247501776
2699.85+247793648+248117664+248814064+249872608+250924832+251635152+252127744
2695.35+252901264+254167680+255501824+256401472+256923824+257441728+258054016
2690.85+258680848+259480688+260660080+262021136+263177520+264111648+265142080
2686.35+266395856+267664752+268777472+269817248+270951040+272241440+273626976
2681.85+274984352+276217632+277365152+278571584+279886400+281147200+282152128
2677.35+282893728+283584224+284486080+285750560+287336128+289007104+290473632
2672.85+291645024+292730336+293999168+295424288+296687680+297599776+298407200
2668.36+299538400+301121920+302905760+304589600+306014112+307094816+307904000
2663.86+308804096+310200576+312036352+313808928+315142400+316107008+316967744
2659.36+317928672+319151648+320729632+322549952+324360608+326021312+327570624
2654.86+329060416+330463456+331728928+332885888+334073920+335443104+336970080
2650.36+338494272+339968832+341521472+343192896+344855072+346474336+348130624
2645.86+349658176+350683904+351246656+351998208+353481824+355501376+357455744
2641.36+359043936+360407136+361793696+363382656+365281408+367409760+369432224
2636.86+371050976+372340384+373620160+374997536+376318528+377581440+379042656
2632.36+380761088+382429760+383888096+385430592+387315296+389329152+391170816
2627.86+392871072+394517440+395961376+397141216+398321536+399708864+401187872
2623.36+402665888+404302528+406169856+408038368+409658528+411002016+412191872
2618.86+413432000+414990880+416937376+418966656+420726528+422246656+423816448
2614.36+425520992+427162848+428622688+430084416+431813024+433776384+435617632
2609.86+437089120+438408768+440027840+442074368+444236896+446225728+448097536
2605.36+450005888+451839648+453366720+454668672+456167776+458108992+460233120
2600.86+462119392+463686528+465132000+466565920+467945728+469318592+470828960
2596.36+472486272+474145600+475689344+477090784+478359616+479594336+481001216
2591.86+482660832+484360160+485864512+487279680+488877376+490652352+492345216
2587.36+493908800+495566880+497369280+499043232+500412608+501640832+502952608
2582.86+504392832+505933952+507549920+509144960+510643584+512115424+513614208
2578.36+515035680+516351360+517795040+519545824+521408672+523047104+524341600
2573.86+525354944+526150784+526854656+527745568+529106240+530949632+532978784
2569.36+534834624+536378848+537667776+538712256+539503168+540292032+541470080
2564.86+543047488+544606592+545892544+547068224+548281088+549419968+550400448
2560.36+551351424+552427072+553686464+555144512+556715904+558195136+559467008
2555.86+560621888+561743360+562754432+563590720+564389376+565400384+566723776
2551.36+568168768+569420416+570405824+571371392+572525056+573783104+574980864
2546.86+576096192+577180288+578270336+579432896+580677376+581864128+582907968
2542.36+583908800+584906880+585747264+586404032+587127872+588093632+589195456
2537.86+590302272+591430528+592602496+593770624+594873920+595849344+596710208
2533.36+597641856+598791360+599989760+600989056+601887168+602936640+604072576
2528.86+605017024+605741568+606481984+607406400+608490240+609603136+610589184
2524.36+611389312+612099392+612818752+613589888+614547840+615840960+617280640
2519.86+618413440+619119040+619801728+620776256+621828160+622608640+623178816
2515.36+623883456+624801856+625673792+626354880+627078336+628132032+629483904
2510.86+630898432+632231360+633429632+634409408+635150208+635772672+636388736
2506.36+637025728+637740544+638623744+639609856+640511744+641261312+641977216
2501.86+642805504+643812352+644959040+646109760+647119680+647970112+648750912
2497.36+649580096+650590912+651829696+653068864+653923520+654285760+654497408
2492.86+654959552+655717888+656531008+657225984+657872192+658621888+659450112
2488.36+660165184+660740224+661419456+662327744+663159616+663546752+663630144
2483.87+663932992+664690304+665605504+666306752+666754752+667081216+667282432
2479.37+667339840+667516864+668192320+669327872+670368576+670851264+670902400
2474.87+670924544+670978240+670815872+670459200+670305984+670548160+670919552
2470.37+671218304+671627712+672183808+672437888+672133888+671754688+671822400
2465.87+672071040+671925056+671391360+670934400+670793088+670923648+671250176
2461.37+671588864+671669184+671459840+671140096+670745856+670219968+669712704
2456.87+669378816+669089088+668721536+668422144+668224128+667890048+667430784
2452.37+667244288+667429952+667553920+667350592+667080320+666957632+666793472
2447.87+666430400+666032576+665763776+665539776+665262528+665002240+664833344
2443.37+664699136+664524352+664340416+664254848+664312192+664408128+664352256
2438.87+664041280+663618368+663387840+663524992+663874752+664141888+664239168
2434.37+664329536+664518848+664719680+664850944+664950976+665008000+664872896
2429.87+664499712+664136640+664119808+664529344+665103552+665479360+665538048
2425.37+665501248+665639296+665924096+666121920+666151040+666142976+666152064
2420.87+666073920+665886656+665776384+665925248+666291712+666641920+666765760
2416.37+666635328+666384256+666128704+665898496+665764672+665857152+666120832
2411.87+666247232+666064320+665797696+665715456+665742144+665673024+665552576
2407.37+665508480+665411328+665030400+664435200+663934080+663655680+663424448
2402.87+663011520+662357888+661573504+660847616+660332992+660026240+659739904
2398.37+659268224+658587456+657855168+657181248+656465344+655563968+654552000
2393.87+653653952+652957568+652377408+651887168+651517568+651130816+650495360
2389.37+649631680+648797120+648081984+647312640+646424128+645564480+644746496
2384.87+643715584+642398080+641149696+640308160+639714240+638987584+638060288
2380.37+637099456+636070976+634764032+633186688+631563456+629961408+628260608
2375.87+626454144+624679680+622966400+621213888+619357056+617348160+615111616
2371.37+612745216+610547392+608601792+606577664+604219072+601787584+599675264
2366.87+597812160+595832832+593673728+591667968+590086592+588867840+587761216
2362.37+586529088+585069632+583518080+582213376+581422336+581065984+580815616
2357.87+580447488+580019584+579711872+579602176+579661056+579910720+580482048
2353.37+581424128+582506688+583344192+583779840+584018752+584299392+584515072
2348.87+584280640+583303552+581581952+579290432+576621632+573777920+571021056
2344.37+568619200+566700032+565169600+563801536+562439680+561069888+559721408
2339.87+558344128+556827456+555115456+553244160+551314624+549443968+547734144
2335.37+546216448+544829056+543503232+542235840+541026048+539835584+538727424
2330.87+537903872+537426560+537002112+536283008+535255264+534118112+532993920
2326.37+532020096+531440128+531265024+531092192+530581152+529842176+529090240
2321.87+528262624+527263744+526234720+525326784+524495520+523682720+522933952
2317.37+522268576+521651072+521063424+520413728+519517216+518344704+517115776
2312.87+516006784+514995648+514063488+513258816+512509184+511632704+510562912
2308.37+509381888+508197696+507131840+506284384+505546592+504643904+503476448
2303.88+502214080+501018016+499869440+498736960+497660512+496594528+495370816
2299.38+493903936+492348160+490980288+489952448+489137088+488236256+487082880
2294.88+485788864+484542144+483332288+482009696+480572160+479205856+478039968
2290.38+477033568+476130496+475337152+474563264+473627232+472555328+471622336
2285.88+470908480+470051680+468718144+467111456+465719648+464682880+463710304
2281.38+462527328+461155808+459768512+458483584+457321632+456241728+455178144
2276.88+454103616+453062944+452123136+451285280+450456224+449532864+448478944
2272.38+447336736+446192832+445156704+444297280+443570400+442835840+441979520
2267.88+440960000+439769824+438458944+437196864+436163744+435340128+434516992
2263.38+433552096+432500256+431478656+430509568+429543584+428548800+427499808
2258.88+426374464+425225472+424205504+423395712+422654624+421753504+420668800
2254.38+419622592+418841600+418364736+418023488+417492832+416489632+415071648
2249.88+413613888+412387168+411360032+410472960+409797248+409273504+408627936
2245.38+407713280+406683392+405756640+405022080+404463648+403926592+403181472
2240.88+402241312+401431392+400876480+400255360+399328832+398345344+397600160
2236.38+396955936+396138400+395159104+394185056+393283904+392513824+391952672
2231.88+391501600+390906208+390113152+389350592+388772960+388239968+387514112
2227.38+386539136+385494688+384634880+384073728+383664448+383132192+382357280
2222.88+381462592+380638176+379943264+379339104+378818368+378408832+378041120
2218.38+377552576+376870688+376121184+375475968+374946176+374377888+373604448
2213.88+372611456+371595616+370819424+370338656+369950272+369486272+369017824
2209.38+368641472+368218432+367532480+366612416+365761344+365266176+365126208
2204.88+365035392+364675328+364017952+363242048+362407968+361443392+360454368
2200.38+359752544+359483520+359408032+359140960+358499328+357655456+356997888
2195.88+356735392+356646848+356348896+355764416+355115136+354547584+354020672
2191.38+353468000+352848576+352153568+351467328+350866976+350248768+349496256
2186.88+348755296+348262048+347996192+347778048+347510624+347093344+346405056
2182.38+345624704+345194080+345228224+345311104+345048896+344460736+343746112
2177.88+343045632+342473568+342065632+341689312+341233824+340799552+340510400
2173.38+340290784+340002272+339598336+339050176+338344704+337622656+337127904
2168.88+336931168+336856928+336691296+336355488+335881760+335329504+334768928
2164.38+334289344+333957760+333726848+333466560+333142336+332841120+332562688
2159.88+332144224+331520576+330886176+330458208+330231552+330061792+329837152
2155.38+329497216+329049312+328596448+328251712+328038240+327943072+327941792
2150.88+327877952+327535584+326938528+326393568+326130336+326045888+325894496
2146.38+325593760+325256096+324998656+324765184+324371008+323750752+323076960
2141.88+322548160+322171936+321846944+321537408+321246944+320957344+320695328
2137.38+320524800+320400256+320159424+319726912+319229408+318847648+318618272
2132.88+318399328+318053280+317644864+317378464+317301632+317202016+316860576
2128.38+316300224+315722208+315327104+315200064+315250688+315266656+315120544
2123.88+314822720+314385504+313835008+313390336+313319904+313538016+313617536
2119.39+313320416+312855136+312541440+312433984+312344160+312108512+311777440
2114.89+311539776+311452928+311308736+310884032+310252640+309709536+309463968
2110.39+309501536+309623072+309548032+309137824+308573344+308165056+307985600
2105.89+307872832+307732288+307582240+307349632+306909152+306337760+305874464
2101.39+305587712+305320576+305000160+304771392+304762848+304874656+304885952
2096.89+304682048+304369568+304175392+304199072+304252608+304068128+303642240
2092.39+303206400+302860960+302491200+302064096+301711904+301470208+301218880
2087.89+300939296+300791584+300871296+301079840+301225024+301149152+300827680
2083.39+300441152+300204256+300056000+299734784+299212448+298811232+298767616
2078.89+298909728+298898624+298631648+298303712+298148960+298192256+298210912
2074.39+297971520+297500576+297056704+296805504+296636704+296412768+296241248
2069.89+296300704+296491552+296512608+296288352+296032736+295852544+295592032
2065.39+295184224+294843936+294712352+294583840+294205568+293647648+293174656
2060.89+292899648+292776384+292832576+293179776+293739680+294165248+294140032
2056.39+293704992+293158592+292708640+292374016+292188960+292232768+292426656
2051.89+292484256+292191712+291628320+291051616+290678400+290571424+290639104
2047.39+290709536+290662080+290496064+290224768+289802592+289235648+288673760
2042.89+288274336+288073728+288060928+288220320+288399776+288389344+288210400
2038.39+288075328+287982112+287754016+287512128+287583744+287822880+287636128
2033.89+286867744+286098176+285861280+286050976+286249472+286210560+285944704
2029.39+285668768+285662368+285925952+286114496+285984224+285641248+285241216
2024.89+284791456+284377440+284196864+284226944+284185056+283937472+283674560
2020.39+283579264+283497728+283059168+282115040+281016512+280407264+280668064
2015.89+281536992+282276320+282264352+281553280+280852032+280839264+281451520
2011.39+282008160+282002400+281544480+281021984+280619648+280293088+280015584
2006.89+279896512+280021312+280242464+280254144+279953632+279589184+279444064
2002.39+279525952+279650144+279668832+279523744+279247424+278963360+278771200
1997.89+278642464+278525472+278430080+278341376+278187232+277889248+277236448
1993.39+275882272+273914880+272312608+272186688+273444192+274788864+275189856
1988.89+274859104+274628768+274928544+275642112+276501888+277216832+277472320
1984.39+277171872+276594976+276142880+276024128+276224192+276557696+276709760
1979.89+276448320+275882112+275362752+275120096+275152256+275373920+275680832
1975.39+275907136+275924832+275801472+275734080+275782016+275735648+275341536
1970.89+274657280+274014752+273533504+272877920+271740672+270428768+269690720
1966.39+269990720+271114560+272416192+273304256+273548000+273278144+272799296
1961.89+272440544+272452640+272822848+273216064+273322560+273227648+273231008
1957.39+273370944+273372544+273015456+272376096+271742592+271377984+271335168
1952.89+271489792+271716384+271936896+272014336+271856064+271583520+271376384
1948.39+271191232+270849248+270303904+269720320+269379808+269413984+269309856
1943.89+268025472+265321216+262767120+262474368+264727712+267747664+269808992
1939.39+270694944+271026944+271101504+270829664+270278976+269794368+269678784
1934.90+269930944+270276256+270408096+270254624+270014400+269919808+269991360
1930.40+270044128+269881184+269483744+269074496+268968960+269254400+269675328
1925.90+269910112+269698048+268601408+266307424+263567376+262096720+262867584
1921.40+265115584+267329632+268080464+265861568+260335456+254494176+253089568
1916.90+257340368+263358096+267026016+267981488+267950848+267784016+267515456
1912.40+267343280+267185760+266538576+265497520+264863984+264992608+265478000
1907.90+265971568+266493328+267026160+267405552+267574224+267670176+267910320
1903.40+268371664+268827200+269008832+268981984+268955296+268845952+268439648
1898.90+267823280+267336480+267212752+267342976+267251664+266554624+265673040
1894.40+265535456+266310608+267247376+267859184+268047408+267040608+264002992
1889.90+260101584+258196240+259696768+263056080+265864272+267165600+267413616
1885.40+267339792+267378240+267665552+268153200+268724416+269196704+269359968
1880.90+269196384+268968640+268964832+269229280+269557664+269716000+269736352
1876.40+269902336+270250688+270365344+269976096+269376960+268980096+268925888
1871.90+269016928+268155744+264400928+257355552+250279520+247670160+250476176
1867.40+255700016+260489824+264311136+267429040+269621568+270820768+271507296
1862.90+272004640+272180992+271980352+271736544+271791136+272052064+272159968
1858.40+272033632+271937024+271988576+272080704+272295264+272783552+273310624
1853.90+273577280+273746720+274009792+274131008+273971104+273771904+273500864
1849.40+272693600+271209024+269682784+269196864+269936512+269070688+261664320
1844.90+247213744+234437248+234148912+246347328+260655008+269178880+272318816
1840.40+273403104+273826368+273858848+273764416+273323008+272574240+272463456
1835.90+273335136+274206976+274378656+274193248+274045632+273801024+272449440
1831.40+267934608+259645344+251576944+249756256+255463776+264081184+270415552
1826.90+271836352+268004672+261605248+258011136+260443936+266463968+271646976
1822.40+274486496+275934240+276746464+277119392+277181920+276687936+275363232
1817.90+273761536+272839872+272938720+273800384+274970464+275810560+275858848
1813.40+275260160+274225472+272414944+269751104+267496384+267466544+269942848
1808.90+273060992+274796512+275163424+275668064+276849600+277716352+277616960
1804.40+276846560+275182080+271964256+268033744+265278848+263832992+262213040
1799.90+260553664+261065040+264644256+269175264+271812288+271706496+270439744
1795.40+270024576+269536992+264534000+252510464+238714768+232757184+238090336
1790.90+249062560+259133792+266560656+271749600+274526016+275362752+275299328
1786.40+273690688+269458144+264724512+263536624+266678432+270928320+273080896
1781.90+272102368+268760960+265565120+265334560+268040096+271023392+272727168
1777.40+273291680+272252896+269645408+267795312+266860880+260780576+244410016
1772.90+223710720+212559200+218136432+234628512+251139184+259681280+258004656
1768.40+251115360+248470576+254766192+265093376+272151552+274503712+274903552
1763.90+273725408+267985776+256924624+246200608+244113520+252606576+264644576
1759.40+272195456+273252032+269755904+263662848+258349056+258785616+265502752
1754.90+272892576+276734816+277296544+273129600+260495056+243014768+233291600
1750.41+238135360+249689584+257420992+260191824+262603872+266747344+271530688
1745.91+275632864+277994208+277880288+276082656+275033856+276864608+280369120
1741.41+280045312+271391616+258716912+253426784+260859008+274061888+283890624
1736.91+286978240+280840544+260508192+226937616+194844384+184310912+201687968
1732.41+233764912+261616656+275202944+276842912+275469504+277549664+282618016
1727.91+286839424+288438880+288581152+288710624+288730816+287801920+286023456
1723.41+284686176+284955264+286695328+288534528+288547968+284304192+272383904
1718.91+250174672+221770656+201343648+202543104+221402384+240316128+249887232
1714.41+256141296+266478080+278541760+286693696+290213984+290865248+289645792
1709.91+288719904+290498624+293203232+292317056+286568672+279049376+273544160
1705.41+272000832+274188512+279016032+286161888+292758592+288210880+261022752
1700.91+216685024+183926128+190265536+230400688+273591936+293193248+280526240
1696.41+247687312+224651600+236740224+276859616+316585888+339312032+348652800
1691.91+353523168+356593952+357799648+359629408+363925344+369271104+375012832
1687.41+381553408+383065696+367788512+332863040+296439296+286076256+309792960
1682.91+349979104+386230624+409993344+422220736+428067584+433222624+440458848
1678.41+448773344+455278688+455798048+446251264+429341312+418738208+427870336
1673.91+452643072+475237344+484695968+484928064+483681984+481322080+475149312
1669.41+469707744+474812256+493056064+515864416+533588608+544225472+551137280
1664.91+555796544+555651328+549558976+543236672+545826176+559666496+577458688
1660.41+591492928+600856960+608151040+614340224+619451904+623981952+626779008
1655.91+624091200+611014656+582245312+536713728+489481920+473301152+508213184
1651.41+573415744+631221440+662823488+671127936+666414656+656427776+644370112
1646.91+631416704+622134848+625780480+645922240+671824064+689115968+694958016
1642.41+696181248+697150336+696979392+695630272+694078272+690481792+682970944
1637.91+672627456+658018112+633601216+602157312+582280832+589995072+616559040
1633.41+639740992+648633600+647004736+641497472+634841152+626997824+616566336
1628.91+602211072+585734080+571865344+563434624+558439232+551684416+537958976
1624.41+516308320+493500320+479768352+478131776+481539456+481822048+477052288
1619.91+470037152+462319808+449414592+423498304+385711648+354912608+352765152
1615.41+376249344+401493536+412956192+413257408+410286720+406920128+403355680
1610.91+400160640+396802496+392533600+388690432+386621408+385288096+383578912
1606.41+382228576+381667360+380874016+379297184+377469216+375765088+374477024
1601.91+374150656+374504480+374486464+374020320+373860000+373879552+373501120
1597.41+373050528+372861568+372275968+371043008+370090624+369948832+370270496
1592.91+371108704+372599648+373830240+374094304+374230016+375001376+375806528
1588.41+376316512+377237888+378641280+379857248+381042304+382554720+383701152
1583.91+384207168+385108384+386586720+387597568+388357408+389799840+391125984
1579.41+391543904+391372896+386529952+368033216+335923584+310172448+314261760
1574.91+345543328+379369248+398952672+406047136+408770912+408565120+400866016
1570.41+385367840+371519456+370859232+384226144+401496224+413174848+416817120
1565.92+414537152+410143072+407935168+410042048+414714816+417502272+411560128
1561.42+389054208+348961376+303791072+271356512+259295184+266650016+293875520
1556.92+335582048+372298400+385441952+376345280+364421568+366738048+382438240
1552.42+398888032+406116352+402983584+395361664+390674368+392196512+397679808
1547.92+402695264+403481088+397290656+384128256+369907552+363028352+363263744
1543.42+359452960+344010976+323849440+309333376+297169728+278002528+258728640
1538.92+261192560+293032448+335417664+366281120+379139552+378274848+367918144
1534.42+351450784+336705696+333529952+343330624+357117152+366420992+370280096
1529.92+370410304+366538752+359810880+354438208+351439552+346425280+337835936
1525.42+331702464+333497440+339101568+338151840+323912832+299069536+275676544
1520.92+268819264+284465888+312280352+333731424+337574208+328159456+319909088
1516.42+322276096+332188416+342361504+349466304+351843008+347842944+340419968
1511.92+336422016+337630496+338659552+335239488+327186720+312885248+288853088
1507.42+257336384+230053696+221679072+238746784+273822048+310682144+336010880
1502.92+346753696+348355360+347874880+347873184+345391872+337657984+328514176
1498.42+324430592+323167200+315799328+303356352+300556768+315800800+338279264
1493.92+353523808+358991616+358784704+353580096+342704192+330846016+325877440
1489.42+330450880+339267872+345369632+347578784+350699168+358376768+368213280
1484.92+375756672+380169696+383294304+385765376+387057952+387917024+390079840
1480.42+394140320+399309664+404618240+408652096+408885984+404193344+398574400
1475.92+398473888+403800768+405933216+398260576+385188448+377997312+384113120
1471.42+402607200+426738976+447997632+460986976+466819744+470310720+473717632
1466.92+474768256+470083872+459838784+450618848+451696384+464444384+479355328
1462.42+487933952+491310400+493294240+492393056+486164160+475596768+459524544
1457.92+434172512+405921760+395027872+414024448+450219392+481841664+499626432
1453.42+506692448+508274816+507446272+506621184+507522144+509146368+508162560
1448.92+502656672+495306816+491747648+494839200+501601952+506923872+508813088
1444.42+508792544+508572448+508292704+507815520+507617728+507538656+506510752
1439.92+504515072+501990976+495440384+478367552+451894368+431214304+432186560
1435.42+451260352+470087840+477340352+475849984+472492480+469393440+465082976
1430.92+458485312+450616768+444779392+443860736+446173376+447057376+445004064
1426.42+442062912+438604672+432935040+425941600+420950944+419284864+419837952
1421.92+420512608+416111424+400057440+374535232+354840992+354880672+370472128
1417.42+386528640+395193792+398883168+401358240+403050848+403437760+402756672
1412.92+401276640+399320224+397668064+396788544+396395552+396251904+396541248
1408.42+397317024+398137632+398022880+395608512+390484896+384983552+383086560
1403.92+386131264+390931104+393646624+393747584+392242912+388131328+380150240
1399.42+371138752+366546304+368027072+371760576+372998880+369260128+360649024
1394.92+350880288+346513920+350871040+359711328+366098848+367528160+366148320
1390.42+364354720+362109184+357303040+348294080+337549696+331556928+334197856
1385.92+341804640+347874656+350076768+350010976+349103072+347749344+346471520
1381.43+345417728+343997664+342106464+340457120+339470208+339038400+338967552
1376.93+338575744+336640800+332648832+327577408+323343744+321952864+324298144
1372.43+328917824+332968160+334971072+335299328+334257664+331952128+329877248
1367.93+329837600+331281568+332199360+332049376+331213024+328768064+323888768
1363.43+318570368+315918176+316325184+317957760+320067200+323142112+326577216
1358.93+328764128+329236608+328968000+328719296+328397824+327880544+327448928
1354.43+327405792+327766080+328293216+328607520+328465440+328039232+327732448
1349.93+327704320+327793600+327856800+327946720+328101504+328229696+328255424
1345.43+328235872+328261792+328357088+328497536+328498048+327828768+325889472
1340.93+322805440+319762176+318184512+318532192+320055040+321613280+322566048
1336.43+322990464+323349088+324007072+324961728+325898944+326427296+326375200
1331.93+325964032+325617152+325518560+325535648+325581056+325726208+325876128
1327.43+325774400+325436544+325172768+325107648+325098080+325058208+324983200
1322.93+324807360+324588320+324479680+324234560+323270560+321613600+320202304
1318.43+319799328+320162048+320630368+320982176+321309504+321508800+321321824
1313.93+320725664+320063008+319799008+320138816+320830272+321402080+321597664
1309.43+321513056+321355296+321221920+321087712+320879008+320531648+320088160
1304.93+319790912+319955328+320598208+321275520+321475008+321177408+320837312
1300.43+320838464+321175296+321605312+321845760+321673056+321151776+320726304
1295.93+320807072+321326400+321905568+322302752+322462368+322346816+322049408
1291.43+321905248+322099936+322317664+322161664+321807584+321803872+322286496
1286.93+322847712+323177920+323374464+323580800+323766656+323953728+324277056
1282.43+324725472+325070432+325134240+324984352+324881568+325042592+325379104
1277.93+325550912+325477248+325584960+326217792+326999904+327223392+326740896
1273.43+326088672+325827776+326099584+326736320+327495648+328158816+328579008
1268.93+328770176+328966496+329476224+330333792+331162624+331592864+331713216
1264.43+331913152+332385536+333040928+333764096+334509568+335263840+336117280
1259.93+337239584+338608672+339886016+340734240+341216448+341747936+342632032
1255.43+343733984+344690208+345383456+346067712+346975584+348028064+348998240
1250.93+349807936+350534560+351251872+351949152+352587840+353208800+353964320
1246.43+354939488+355975584+356894208+357815008+358970816+360243616+361279904
1241.93+362072928+363031776+364423904+366102496+367794208+369293152+370449248
1237.43+371319264+372230176+373352480+374387840+375081952+375767104+376915968
1232.93+378393344+379690720+380703328+381732672+382870336+383923936+384883296
1228.43+385956544+387119936+388056480+388609056+388984032+389417664+389948608
1223.93+390605792+391562944+392876096+394244672+395281920+395950144+396486912
1219.43+396971392+397208480+397086240+396844736+396872576+397330912+398025568
1214.93+398590816+398777664+398628608+398466624+398624576+399084704+399453696
1210.43+399432416+399191680+399081056+399108960+399024512+398802080+398657952
1205.93+398691520+398774080+398741152+398502208+398082464+397666208+397414784
1201.43+397238368+397007904+396876416+397044480+397387584+397651776+397787296
1196.94+397796896+397564384+397125472+396772320+396673216+396752192+396984928
1192.44+397404416+397806912+397912832+397804256+397834816+398168832+398740192
1187.94+399498176+400403008+401293728+401975904+402397088+402683648+403094912
1183.44+403887904+405082656+406440736+407764448+409126848+410689856+412432416
1178.94+414196352+415922592+417664960+419377344+420907936+422325632+424012992
1174.44+426153952+428353696+430149568+431686624+433379616+435154784+436645184
1169.94+437967040+439617536+441690688+443848992+445934048+448006048+449966464
1165.44+451739264+453612832+455870720+458300480+460521600+462535776+464578496
1160.94+466753440+469047392+471350848+473360032+474924192+476501664+478717952
1156.44+481508896+484283648+486827200+489468480+492407360+495459744+498439264
1151.94+501418496+504589312+508053056+511691136+515245248+518690240+522349920
1147.44+526445568+530727136+534850400+538889728+543211840+548014656+553203136
1142.94+558558016+563916480+569262144+574673536+580137792+585527360+590801408
1138.44+596110272+601630208+607430400+613460928+619618432+625835648+632142400
1133.94+638566208+645075072+651706816+658567936+665552192+672303872+678684800
1129.44+685044096+691824256+699071040+706471232+713714368+720634496+727144576
1124.94+733282560+739431936+746211264+753787712+761450496+768336064+774512960
1120.44+780823168+787739456+794963712+802072512+808983616+815784512+822531392
1115.94+829173824+835538944+841613632+847750144+854165312+860409280+865961152
1111.44+871138112+876780544+883179520+889833216+896024192+901321088+905902656
1106.94+910574336+916019968+921952832+927524160+932469184+937317888+942545280
1102.44+948034176+953317056+958028032+962144000+965945408+969732992+973688256
1097.94+977976128+982678272+987548672+992237184+996743872+1001178368+1005274944
1093.44+1008740096+1011938752+1015524992+1019581760+1023677568+1027592000
1089.58+1031417600+1035095744+1038378432+1041282112+1044220672+1047534080
1085.73+1051003968+1054051840+1056429888+1058408384+1060277632+1062149824
1081.87+1064287168+1066950720+1069762752+1071918464+1073136832+1073704384
1078.01+1073741824+1073235712+1072549440+1072046016+1071564736+1070920576
1074.16+1070265472+1069421120+1067679936+1064842432+1061587200+1058523584
1070.30+1055714368+1053064640+1050278976+1046637952+1041735424+1036125952
1066.44+1030574592+1025176640+1019690240+1014041664+1008148608+1001847104
1062.59+995161792+988155712+980689664+972699264+964371904+955755328+946754368
1058.09+937628928+928767936+919901440+910316736+899964800+889703680+880262016
1053.59+871394624+862217280+852230144+841821376+831655680+821755392+811553984
1049.09+800781824+789849408+779295936+769254976+759491712+749743680+739952128
1044.59+730177088+720309376+710130112+699804736+689913344+680797120+672214464
1040.09+663811392+655515776+647363840+639322880+631407232+623718336+616316032
1035.59+609062336+601622592+593855680+586271104+579655552+574051520+568683712
1031.09+563048960+557390848+552033728+547027328+542492352+538558848+534979936
1026.59+531400928+527818400+524388704+521115744+518057792+515396032+513154048
1022.09+511161152+509251648+507281856+505250528+503563200+502708032+502571488
1017.59+502610560+502602560+502675648+502870400+503328704+504532864+506760960
1013.09+509615200+512499296+515191264+517734528+520277024+523161568+526749408
1008.59+531049440+535772096+540720512+545989376+551863232+558493760+565559616
1004.09+572461312+579070464+585918208+593393984+601132160+608470592+615148416
999.59+621381312+627622784+634359616+641756288+649422720+656809344+663802752
995.09+670661440+677460480+683913920+689782912+695235776+700720704+706422400
990.59+711924416+716641024+720600832+724367488+728009664+730728320+731946368
986.09+732211840+732446912+732774528+732708160+732027840+730864192+729256000
981.59+727169600+724657856+721645440+717937024+713615744+708982208+704043328
977.09+698552896+692498816+685989952+678844992+670926848+662697280+654806848
972.59+647362432+640098304+632979904+626081856+619140096+611773632+604047872
968.09+596452864+589350464+582651200+575967424+569028032+562028416+555528512
963.59+549874880+544753216+539544320+534120032+529077888+525036000+521849888
959.09+518731200+515116928+511238080+507758560+505050080+502985920+501256096
954.59+499578400+497664704+495392672+493109152+491417120+490456000+489667072
950.09+488505792+487156896+486224416+485857248+485516960+484658368+483403264
945.59+482391712+482055072+482234944+482513408+482697504+482832736+482965760
941.09+483157696+483547744+484097312+484411520+484148096+483514720+483000704
936.59+482719232+482426368+482145760+482261568+482876064+483570176+484021152
932.09+484414592+484924704+485195168+484746752+483644992+482450144+481702848
927.59+481600128+481942464+482300992+482475168+482691424+483085024+483239424
923.09+482663424+481483904+480261824+479337632+478672448+478067744+477293856
918.59+476272992+475220896+474381920+473665184+472831968+471887936+470963680
914.09+469943776+468596512+467076896+465999104+465768000+465925888+465492992
909.59+464048704+462110240+460325792+458809824+457486080+456466752+455775552
905.09+455196000+454602176+453992160+453241376+452284480+451365024+450612352
900.59+449702624+448353344+446789376+445401568+444346560+443656864+443296992
896.09+443043072+442664896+442169408+441605312+440847104+439805504+438640352
891.59+437602656+436792896+436106976+435381568+434711712+434482784+434769312
887.09+434956544+434414272+433364224+432556448+432328032+432432512+432560160
882.59+432590304+432454496+432054528+431367936+430583040+430034944+429834816
878.10+429683840+429275360+428726176+428332448+428196864+428365920+428895136
873.60+429456032+429356736+428338592+426971264+425972960+425530656+425482624
869.10+425711072+426022016+425987712+425372480+424627712+424438208+424699328
864.60+424442848+423052192+421100384+419643456+419165024+419414240+419727104
860.10+419313536+417926816+416391744+415820160+416266080+416750336+416455488
855.60+415262112+413389248+411159232+408869600+406632704+404508928+402816480
851.10+401920480+401825856+402103008+401858976+400114496+397082912+394623616
846.60+393959616+393452896+390544576+385779264+382696288+383328768+385648736
842.10+386183040+384011040+381200192+379935648+380307264+380812928+380172896
837.60+378295840+376010624+374226240+373012800+371474016+368926016+366039072
833.10+364096032+363196128+362061536+359750624+356636960+353531232+350914656
828.60+349364576+349378560+350098176+349685600+347837024+346486848+346976576
824.10+348122400+348274400+347628736+347212064+347130624+347044704+346983360
819.60+346757856+345845824+344505344+343682496+343413056+342691104+341278720
815.10+340367360+340809568+341740544+341778752+340959136+340571616+341249888
810.60+342291648+343027136+343769888+344900704+346008896+346498976+346256608
806.10+345458080+344576064+344506496+345793056+347942816+350023328+351318016
801.60+351158112+349543584+348212896
##END=
