##TITLE=octarelline 6 front
##JCAMP-DX=4.24
##DATA TYPE=INFRARED SPECTRUM
##DATE=31/1/2005
##TIME=18:36:53
##SAMPLING PROCEDURE=film
##ORIGIN=Vincent
##DATA PROCESSING=no operation
##XUNITS=1/CM
##YUNITS=ABSORBANCE
##RESOLUTION=2
##FIRSTX=4000.283
##LASTX=800.31372
##DELTAX=-0.64282227
##MAXY=0.20785017
##MINY=-0.0085008731
##XFACTOR=1
##YFACTOR=1.9357556e-010
##NPOINTS=4979
##FIRSTY=0.01059357
##XYDATA=(X++(Y..Y))
4000.28+54725761+54928164+54999836+54930908+54655748+54248408+53938816+53801840
3995.14+53630636+53223212+52654728+52162760+51929136+52008920+52281708+52501272
3990.00+52521536+52471836+52484572+52419272+52129916+51877952+52048616+52528920
3984.86+52824084+52757004+52621052+52679784+52951824+53425476+53976760+54132512
3979.71+53481900+52372320+51691568+51870428+52510988+53034932+53258680+53215548
3974.57+52861048+52246528+51704840+51568132+51783660+52029588+52159616+52340564
3969.43+52760836+53355776+53859784+54051968+53912932+53549560+53076420+52648024
3964.28+52460204+52461432+52225316+51525580+50908556+51122784+52053404+52847776
3959.14+53018916+52794788+52499080+52276368+52324692+52716060+53082868+52995500
3954.00+52553016+52195204+52116228+52108840+51828136+51082288+50037612+49097852
3948.86+48408116+47695504+46887664+46565020+47373012+49033340+50333960+50213472
3943.71+48784188+47232752+46775972+47716536+49403500+50862864+51459356+51245504
3938.57+50868060+51006776+51804192+52880492+53789380+54220600+53815400+52205472
3933.43+49558112+46961268+45767284+46273144+47433384+48167232+48543804+49350732
3928.29+50858760+52379168+52829292+51643404+49351140+47200792+46092812+46177040
3923.14+47336136+49151020+50368684+49751300+47804920+46452116+46578268+46979700
3918.00+46138408+44230760+42995288+43881632+46504676+49142684+50774776+51869740
3912.86+52954424+53598584+53421232+52894180+52574372+52568892+52877204+53228688
3907.72+52827096+51233736+48638776+44683196+38785940+32342956+28130920+26659738
3902.57+25966716+25485704+26590454+28902094+30020182+29715406+30871318+35252328
3897.43+41179520+46142636+49255860+50708436+50877236+50384008+49447792+46941740
3892.29+41697964+35247028+31698090+33631216+39310916+45133688+49008048+49739808
3887.15+45479736+36017932+25915988+21860202+25882030+33829684+40822696+45010212
3882.00+46034664+43444072+38378628+34656324+35711928+40957108+46905556+51101992
3876.86+53261972+53329208+50656864+45606516+40573500+38496024+40234744+43156956
3871.72+42398456+34750304+22442004+12634314+11729576+19957828+32011140+41568684
3866.58+44617312+40836588+33919828+29606594+31037406+35790064+39119852+39744944
3861.43+40508136+43604140+47782652+50823608+51956508+51316240+49696064+48253576
3856.29+44839680+32492606+7276017-22648302-41873912-43915012-34884592-20930914
3851.15-3087733+16325747+32168768+42016636+47644956+51212944+53426984+54639160
3846.01+54883076+53334684+49570424+44953320+41780660+41036236+41284808+40382468
3840.86+38311156+36449152+33290796+24670682+11165727+1535559+3473798+13529863
3835.72+22629490+27728648+32183556+37735148+41602192+41314088+38611524+37618468
3830.58+40527476+45848628+50495468+52594084+52039992+49675284+47082392+46199020
3825.44+47644956+49961860+51155344+49684576+43821628+32852444+20225122+12734100
3820.29+14302761+22579644+32603592+40038972+40483360+31090966+15829424+5638256
3815.15+8710108+22141092+36781492+46881520+52256388+54734676+55703804+56125940
3810.01+56528540+56129916+52496752+43467656+30846236+21457562+21568816+29994434
3804.86+39946136+46367880+47435024+41144648+26598302+9529154+961959+6522702
3799.72+20819324+34789960+43600456+46604888+45055372+41993608+41233184+44153292
3794.58+48743736+52475804+54658488+55873800+56661564+57183468+57314064+56903096
3789.44+56277592+56092756+56431860+56588744+55954552+54588464+52968808+51743024
3784.29+51480700+52154276+53177484+54069360+54359792+52988112+49254492+44577212
3779.15+41841828+42566624+45804272+49789580+53355228+55905336+57264948+57668032
3774.01+57467304+57050000+56706820+55709700+52163444+45347780+38004156+34681044
3768.87+37274036+43079800+47444036+47712168+44986472+42680836+43283740+46451432
3763.72+50166972+52942792+54336640+54009500+51262468+46110968+40718384+38413044
3758.58+40085804+42918136+44113468+44240172+45390488+47805604+49325852+46107692
3753.44+34268628+14988958-2193895-7987890-5920229-6984559-12754511-13435200
3748.30-2676387+14226860+27530716+29389666+15123450-11656995-34697360-36333464
3743.15-16807412+8036027+26048294+35993340+41215204+44097372+45406868+44429484
3738.01+39609244+30903584+20882762+12876527+9301000+11246904+16974702+21450678
3732.87+20785852+17315216+17599582+24741666+35234668+43866908+48592316+49998096
3727.73+48839396+45785572+42355940+40465516+40975224+43058128+44801204+44598896
3722.58+42719136+41390912+42440020+45069024+47025724+47497440+47630348+48619508
3717.44+50486584+52399972+53308800+52706616+51029892+48205348+42221980+31757902
3712.30+20482462+15120354+17548234+22768226+26330116+29220718+33999112+40169120
3707.16+45544968+49275140+51705388+53192676+54028680+54050736+52151812+47712440
3702.01+42514020+39809328+41257696+45597784+50249436+53474644+55073840+55682148
3696.87+55817044+55585776+54915284+53884576+53018776+52748644+51926400+48198516
3691.73+41509284+35426892+31898558+26864630+16070906+3918231+869651+10835550
3686.59+26809684+40174840+48215324+52413524+54503108+55550964+56262088+56714508
3681.44+56487396+55208840+52794788+49824448+47615732+46301668+42627000+32058212
3676.30+14749748-1653038-7401513+671937+17160788+33074460+40689108+36642980
3671.16+24353516+12735311+9151147+13740150+22457946+32555966+42573300+50527748
3666.02+55243240+57641688+59066880+59826784+60074288+60309860+60657984+60960124
3660.87+61252548+61348616+60928932+60247500+58942088+54792088+46674116+38366792
3655.73+35869412+40647024+48718308+55648152+59068664+57736492+51448272+41499072
3650.59+29859048+18868610+11827709+11295958+16246814+23409180+31258022+40259248
3645.45+49955852+58384772+64116420+67176720+68342312+68663960+69161624+70131632
3640.30+71021600+71275992+70953968+70518544+70481696+71159488+72335584+73121952
3635.16+72511392+70371448+68002232+67330632+68979600+70951472+69435816+61338856
3630.02+47052764+31777024+23249602+26008656+37640496+51717976+63387384+71323896
3624.87+76198584+79063464+80753248+81628136+81491400+79729576+75660624+69504232
3619.73+63306504+59880216+60344068+63690440+68565376+73777600+77638664+78996136
3614.59+78523152+77252456+75075768+72651304+72638192+75919968+78750704+77174816
3609.45+72561536+69761216+71029880+74753200+79128016+83952104+89141656+93717384
3604.30+96567888+97410440+96920976+96111416+95590568+95459272+95680440+96101928
3599.16+96491944+97037720+98173528+99460320+99657976+98515552+97384728+97486832
3594.02+98599248+99946264+101374808+103191536+105297856+106570504+105272352
3589.52+100877648+95333400+91437200+90141496+90762872+93165456+97636552
3585.02+103087224+107485984+110093640+111827744+113597672+115345200+116657096
3580.52+117508768+118210776+118901176+119345104+119451008+119691920+120528232
3576.02+121682360+122602744+123348600+124355616+125634328+126771680+127471936
3571.52+127725880+127622824+127019888+125325600+122071768+117903240+114407520
3567.02+112755368+113199752+115682400+119767944+124180776+127685664+130307704
3562.52+132713312+134814464+136003520+136376800+136793504+137922736+139699152
3558.02+141532240+142871776+143752000+144622016+145578976+146185776+146157952
3553.52+145671168+145038400+144700880+145369248+147344896+149864928+151731376
3549.02+152402512+152102544+151336912+150755328+150998608+152208752+153912128
3544.52+155611104+157271488+159145968+161306800+163489840+165354992+166778736
3540.02+167789424+168344032+168465984+168550448+169059104+169943760+170813152
3535.52+171632656+172808608+174553040+176519264+178090672+178843456+178848384
3531.02+178629312+178683456+179088384+179643024+180174480+180564608+180803040
3526.52+181208784+182160912+183474144+184564400+185300944+186119216+187212656
3522.02+188324512+189477232+191139008+193383216+195524624+196921344+197693040
3517.52+198351536+199105456+199859792+200680320+201830352+203320768+204718816
3513.02+205629952+206161152+206640144+207059248+207240048+207479152+208442608
3508.52+210256080+212232544+213753440+214923856+216028944+216857904+217068992
3504.02+216954528+217240624+218261648+219762704+221461952+223321312+225218416
3499.52+226792768+227847920+228610192+229408736+230288144+231075120+231685488
3495.02+232275104+233173312+234595600+236264976+237508624+238055152+238515840
3490.52+239602848+241055584+241976688+242163024+242371296+243207664+244454720
3486.03+245704704+246959680+248265408+249321440+249893712+250248752+250810080
3481.53+251596688+252334736+253002832+253916592+255243920+256712096+257950736
3477.03+258936704+259872096+260792528+261614624+262434944+263391008+264327648
3472.53+265025072+265696080+266766064+268199568+269491168+270324160+270870752
3468.03+271482528+272340096+273372320+274351648+275111776+275709440+276253888
3463.53+276705248+277039296+277424672+278007520+278704352+279393088+280050848
3459.03+280606176+281024736+281585632+282612544+283880032+284796128+285169632
3454.53+285343520+285625088+286060416+286637408+287263296+287752288+288235904
3450.03+289196512+290609600+291547136+291302752+290510592+290452928+291544832
3445.53+293106624+294362944+295041728+295246528+295307104+295641472+296372704
3441.03+297172032+297680320+297885568+298039968+298388352+298990560+299615264
3436.53+299947360+300072096+300483648+301418336+302543264+303478944+304187264
3432.03+304727936+305085024+305339776+305632768+305913120+306072800+306130432
3427.53+306056064+305702656+305162560+304807744+304856160+305252640+306003360
3423.03+307114944+308218848+308775680+308680544+308337088+308152256+308158080
3418.53+308111776+307874592+307676256+307848992+308280512+308491776+308346976
3414.03+308245088+308569600+309309184+310123264+310414880+309715072+308470944
3409.53+307922272+308618688+309651456+309924896+309488768+309055616+308888160
3405.03+308818784+308805280+308929920+309208288+309663008+310254560+310690400
3400.53+310634048+310071232+309193600+308090784+306865664+305864672+305508384
3396.03+305930432+306785472+307361376+307102240+306293504+305912800+306443584
3391.53+307192736+307209120+306478080+305711872+305324960+305171424+304972576
3387.03+304551168+303871808+303188960+302904320+303084736+303395520+303555168
3382.53+303526048+303303008+302933824+302658944+302724928+303124096+303676160
3378.03+304107776+304012224+303194944+302107488+301491008+301509792+301635840
3373.53+301366784+300733056+300152800+300059264+300525120+301129536+301328864
3369.03+300980288+300361792+299765184+299221408+298467648+297211904+295698720
3364.53+294791872+294973056+295568896+295595712+295044896+294599584+294461760
3360.03+294262912+293784672+293095808+292303968+291690592+291700672+292343744
3355.53+292939712+292859424+292196864+291503456+291096288+290824992+290427552
3351.03+290003104+289989984+290512928+290924256+290417504+289041216+287655904
3346.53+286857792+286399328+285774528+284939136+284224416+283833120+283676384
3342.03+283593696+283506880+283423552+283379552+283345152+283152576+282646240
3337.53+281969696+281515904+281477376+281576832+281394784+280846208+280204160
3333.03+279722208+279417952+279180160+278932416+278624864+278221408+277818784
3328.53+277616736+277622784+277525920+277114176+276602816+276281696+276023680
3324.03+275553088+275006272+274783616+274949728+275120064+274908896+274267360
3319.53+273499232+273026144+272995616+273034304+272596800+271610208+270620448
3315.03+270269856+270723488+271578368+272258432+272432512+272065952+271251008
3310.53+270232000+269444864+269132000+269025696+268820416+268833376+269601248
3306.03+270924448+271850656+271636640+270331232+268536736+266984448+266178592
3301.54+266092016+266263808+266314256+266212784+266034816+265774064+265445872
3297.04+265161424+264995280+264879392+264611568+264000448+263105136+262316336
3292.54+262013328+262165600+262399456+262374336+262009120+261459408+260941872
3288.04+260474256+259863680+259069536+258366016+257916816+257468480+256826176
3283.54+256292448+256184624+256213424+255859840+255174512+254689568+254619184
3279.04+254562096+254035200+253049264+252073456+251536992+251395024+251217760
3274.54+250707808+249945008+249089072+248194912+247447904+247105392+246983728
3270.04+246527392+245694400+245128400+245061712+244735680+243454352+241598224
3265.54+240025632+239032720+238448464+238199984+238203392+238089168+237474720
3261.04+236348304+235054704+234046640+233530000+233105376+232109888+230579344
3256.54+229386944+229105680+229252480+229006144+228142928+227008192+226037760
3252.04+225500048+225280480+224926272+224282000+223839136+224013328+224362544
3247.54+224085280+223040800+221784048+220807296+220172752+219739392+219411104
3243.04+219160880+218942096+218634272+218134736+217491952+216830208+216160720
3238.54+215385728+214421632+213262352+212096736+211397632+211529152+212148496
3234.04+212371184+211741680+210682464+209813632+209193632+208469904+207482816
3229.54+206399680+205452912+204833840+204726272+205042624+205198944+204650816
3225.04+203724416+203331136+203691760+203964320+203398912+202192208+200929104
3220.54+199856448+199016448+198482272+198209840+198092400+198195648+198467648
3216.04+198400176+197529936+196099408+194786480+193994912+193709920+193651872
3211.54+193404064+192841056+192505872+193012864+194038224+194483856+193711808
3207.04+192174144+190776896+190005072+189675312+189363456+188944336+188638848
3202.54+188547200+188392768+187881584+187088816+186352864+185920928+185744416
3198.04+185445600+184628016+183406080+182437776+182250976+182691216+183174064
3193.54+183253584+182895616+182412240+182144208+182070112+181876064+181447872
3189.04+180998144+180593328+179970016+178966128+177808256+176866208+176395008
3184.54+176431024+176673488+176596672+175960640+175047280+174269456+173821328
3180.04+173709632+173758784+173617008+173153136+172730064+172704352+172877376
3175.54+172848480+172589536+172314560+172089616+171866256+171590096+171131520
3171.04+170489504+169996112+169887488+169855888+169548240+169150240+168934528
3166.54+168695792+168236352+167894784+167987424+168222240+168209824+168052432
3162.04+168025072+168134464+168258544+168277712+167944944+167099392+166027648
3157.54+165222864+164865040+164825040+164982912+165277696+165615296+165925424
3153.04+166140256+166111904+165715488+165021328+164190720+163355808+162641824
3148.54+162137056+161788944+161467024+161137104+160846720+160620320+160428560
3144.04+160159984+159692096+159130032+158775328+158635952+158308016+157632960
3139.54+157078992+157098784+157434560+157395824+156620224+155344800+154105760
3135.04+153258000+152724000+152288720+152062912+152304608+152778112+152847552
3130.54+152352432+151849280+151725664+151612464+151005776+150089520+149487680
3126.04+149389632+149359184+149001744+148428736+147921456+147496848+147038752
3121.54+146633280+146481264+146627296+146935248+147192672+147178544+146780176
3117.05+146107136+145378512+144786192+144516336+144650528+144950656+145005584
3112.55+144685504+144224960+143831712+143514208+143278272+143194464+143254032
3108.05+143297952+143074464+142340112+141094416+139758208+138975440+139123120
3103.55+139964720+140746128+140760368+140042720+139330432+139136912+139158272
3099.05+138891504+138434304+138229632+138339856+138419936+138243296+137864304
3094.55+137414416+136973008+136595520+136330336+136167904+136043312+135901360
3090.05+135762704+135669504+135596208+135526880+135572768+135792528+135972112
3085.55+135866128+135550320+135240656+134877792+134253312+133497592+133033128
3081.05+132987856+132936640+132436256+131664688+131282680+131638872+132366464
3076.55+132852496+132834896+132456248+132036680+131880672+132014408+132102192
3072.05+131871448+131478784+131179752+130910664+130500888+129970560+129369696
3067.55+128724232+128291896+128339896+128638832+128666592+128285384+127755600
3063.05+127315248+127110320+127188720+127236280+126823760+126103056+125687784
3058.55+125698672+125596704+125041240+124327488+123871976+123748752+123728840
3054.05+123544280+123141080+122753176+122620400+122707832+122868848+123065360
3049.55+123264960+123344504+123228232+122892160+122302224+121609368+121197464
3045.05+121195904+121250952+121138320+121182784+121693368+122351784+122554864
3040.55+122079960+121180384+120303608+119834952+119838624+119911272+119501368
3036.05+118551512+117732568+117790480+118660920+119470200+119554256+119143720
3031.55+118840408+118805144+118843224+118899640+119018504+119076448+118960960
3027.05+118766088+118564480+118306496+118054328+117988936+118077296+118092240
3022.55+117984272+117924792+117990616+118076880+118083368+118000064+117893216
3018.05+117903808+118106896+118343848+118398976+118308616+118257864+118204312
3013.55+117914928+117404784+117049720+117147624+117502704+117621648+117288112
3009.05+116821912+116673720+116903616+117221184+117433800+117590368+117723264
3004.55+117772016+117803720+118009928+118366552+118577744+118483560+118354288
3000.05+118603112+119302368+120111160+120673584+121010168+121438416+122123168
2995.55+122813912+123100240+122860512+122422104+122313520+122798096+123596424
2991.05+124141904+124222192+124163672+124284808+124539376+124853216+125338624
2986.55+125919888+126304496+126606416+127333368+128435768+129141776+129119960
2982.05+129064296+129659704+130707824+131654904+132350144+132908264+133373832
2977.55+133819064+134375712+134983168+135434272+135720784+136114912+136841536
2973.05+137827600+138801168+139637520+140546256+141730944+142921664+143611568
2968.55+143767120+143893888+144334080+144929984+145448272+145937312+146572192
2964.05+147426000+148414736+149272560+149697088+149655360+149426656+149315168
2959.55+149443504+149776576+150151728+150364784+150378944+150310448+150188464
2955.05+149921824+149515120+149043904+148449600+147658080+146830592+146206064
2950.55+145749216+145252240+144757376+144641280+145157072+146031936+146647120
2946.05+146691376+146509088+146628144+147057296+147358608+147322624+147201520
2941.55+147285920+147606976+148052176+148545344+149061616+149634048+150291568
2937.05+150898192+151207456+151175696+151081152+151241936+151678448+152133184
2932.56+152413968+152666448+153180400+153912128+154414192+154372784+153972592
2928.06+153589632+153415792+153564000+154110208+154772336+154956592+154415040
2923.56+153503568+152664720+152074368+151819648+151874016+151795904+151067840
2919.06+149851328+148828384+148219728+147573120+146612864+145657312+145033248
2914.56+144578800+143963456+143129184+142280240+141630368+141181728+140686768
2910.06+139911920+138976576+138193808+137576640+136857600+136015872+135343216
2905.56+134891584+134340064+133552944+132801416+132303048+132020488+132029440
2901.06+132516544+133194744+133292656+132463760+131323376+130745960+130890672
2896.56+131174208+130996568+130318760+129611672+129279312+129156784+128759496
2892.06+128020472+127414184+127256376+127316664+127269968+127079192+126802664
2887.56+126479656+126269136+126285400+126308888+126086928+125790880+125748872
2883.06+125923000+126048456+126042944+125967128+125843072+125767408+125871784
2878.56+126014504+125892720+125508176+125177128+125075760+125135272+125306648
2874.06+125570112+125759344+125693296+125412992+125087488+124756368+124283528
2869.56+123553480+122627184+121703672+120941008+120374584+120008760+119790808
2865.06+119546496+119168240+118858312+118863536+119043600+119072504+118971960
2860.56+118968016+118948832+118590424+117970176+117530192+117448176+117465648
2856.06+117362504+117258232+117361520+117627008+117791608+117684088+117436064
2851.56+117361656+117613336+117972016+117992312+117411536+116401864+115358288
2847.06+114512648+113931936+113716544+113780280+113547176+112435192+110725184
2842.56+109401736+109015784+109139608+109043440+108520008+107928224+107663312
2838.06+107656032+107438984+106790128+106096016+105766984+105598640+105175504
2833.56+104603528+104324160+104429088+104646392+104782440+104821256+104748536
2829.06+104499136+103980544+103150504+102216504+101592672+101478640+101656040
2824.56+101805488+101815840+101760576+101785056+101973976+102143304+101975096
2820.06+101483104+101050664+100890936+100843384+100783088+100808536+100953456
2815.56+101088304+101122296+101010944+100674280+100154048+99672248+99351000
2811.06+99113528+98919824+98819616+98711184+98437168+98148504+98190288+98597288
2805.92+99023656+99203256+99191520+99133368+99044760+98874680+98585560+98171144
2800.78+97745928+97557504+97750672+98147952+98421088+98421376+98178840+97711848
2795.63+97081408+96530328+96272912+96232432+96241640+96367136+96711408+97072216
2790.49+97166184+97042312+96890120+96623736+96091176+95574520+95586952+96173816
2785.35+96796568+96942488+96570264+95936960+95332992+95051840+95307448+96004648
2780.21+96692128+96904784+96527128+95830464+95231408+95049064+95355168+95934440
2775.06+96425072+96608512+96573888+96582128+96775912+97064656+97261704+97267856
2769.92+97116752+96891936+96637408+96354712+96082112+95963752+96134592+96553232
2764.78+97015928+97385984+97691168+97953768+98081880+98052264+98051696+98226480
2759.64+98387288+98237792+97908928+97937568+98586400+99468976+100052400
2755.14+100276536+100412752+100550496+100571192+100520424+100654280+101119928
2750.64+101783664+102389928+102781304+102980544+103124880+103306200+103524520
2746.14+103750840+103942016+104028864+104063336+104292640+104857976+105527304
2741.64+106013872+106388088+106863200+107399984+107879672+108413624+109138064
2737.14+109891112+110447160+110874536+111433656+112236536+113178664+114072344
2732.64+114767664+115243136+115646496+116207648+117073248+118168080+119237920
2728.14+120127960+120973912+121950896+122983272+123965816+125114064+126668104
2723.64+128414384+129917856+131105592+132235256+133454304+134751984+136176864
2719.14+137779696+139448672+141006560+142403232+143745440+145207440+146927936
2714.64+148928560+151131344+153418656+155628560+157626928+159484480+161449200
2710.14+163654976+166010528+168438288+171003504+173729696+176495984+179152816
2705.64+181645216+184037696+186448320+188915504+191402736+194037920+197129840
2701.14+200663056+204090112+206984000+209657696+212740480+216330960+219912720
2696.64+223012576+225678240+228384832+231571616+235241520+239015184+242577632
2692.14+245928640+249184544+252384272+255616432+259073152+262812256+266621168
2687.64+270278752+273841248+277539392+281437408+285348384+289129120+292932736
2683.14+297000608+301226816+305149952+308504992+311630240+315149952+319277024
2678.64+323595328+327576704+331162784+334707680+338467616+342368960+346243360
2674.14+350097312+354100992+358394816+362873120+367160928+370941504+374326432
2669.64+377735616+381443776+385462688+389776160+394357760+398985152+403325024
2665.14+407219680+410756032+414167872+417773664+421781888+426035200+430182208
2660.64+434159616+438222208+442455296+446574880+450328736+453853408+457509664
2656.14+461499776+465742368+470044384+474282208+478417472+482463872+486501632
2651.64+490620512+494785056+498905536+503058336+507420736+511912896+516254816
2647.14+520415776+524628928+528881696+532837728+536373408+539813120+543550272
2642.64+547723776+552231488+556790592+561116480+565249856+569554176+574214720
2638.14+578963136+583426112+587516864+591384704+595210304+599099648+603064064
2633.64+607105664+611344960+615858432+620400256+624611776+628530752+632588672
2629.14+637026368+641620224+646014720+650072192+653905408+657759104+661805952
2624.64+665953216+669981760+673887616+677857920+681897344+685829120+689693120
2620.14+693790208+698247040+702852224+707393472+711838848+716132352+720144192
2615.64+723894848+727595264+731409472+735352064+739409856+743576384+747795264
2611.14+751976256+756024192+759878464+763654464+767675328+772065536+776429824
2606.64+780304320+783815808+787449472+791280192+794984256+798504768+802125696
2602.14+805907328+809579776+813023936+816416256+819873280+823310656+826666368
2597.64+830020352+833475264+837028224+840556672+843930112+847151616+850345664
2593.15+853577856+856782336+859894464+862941120+866011264+869201664+872533888
2588.65+875884480+879086016+882135552+885128128+888047168+890819520+893507712
2584.15+896187072+898795712+901333568+903977984+906754432+909396672+911774848
2579.65+914146688+916734528+919402624+921969408+924504832+927103552+929677760
2575.15+932123328+934426304+936538560+938404928+940176384+942145792+944423808
2570.65+946815424+949018368+950854080+952357632+953734592+955173952+956729856
2566.15+958423680+960337280+962410624+964320384+965844032+967211904+968770112
2561.65+970477824+972080832+973643968+975418048+977285056+978814592+979905792
2557.15+980938368+982223424+983645312+984921856+986001152+987093888+988394240
2552.65+989816064+991050560+991975872+992878208+994094464+995532672+996836992
2548.15+997940864+999103936+1000355648+1001325632+1001817792+1002231680
2544.29+1003105536+1004442240+1005804224+1006970112+1008122880+1009414784
2540.43+1010674880+1011646720+1012287936+1012761664+1013279808+1013977600
2536.58+1014804160+1015548416+1016034496+1016290816+1016515776+1016945984
2532.72+1017688384+1018592000+1019344256+1019819136+1020257600+1021000704
2528.86+1022095168+1023240576+1024115008+1024714176+1025290240+1025923072
2525.01+1026332992+1026326208+1026227904+1026558400+1027424704+1028506112
2521.15+1029458240+1030105152+1030445120+1030701440+1031133376+1031676992
2517.29+1032052928+1032221120+1032374592+1032576832+1032754816+1032951296
2513.44+1033241408+1033540736+1033758656+1033976576+1034319040+1034799872
2509.58+1035350656+1035801728+1035930752+1035749504+1035579328+1035657408
2505.72+1035859392+1035968064+1035937280+1035805120+1035617600+1035503616
2501.86+1035559808+1035653632+1035577408+1035352768+1035180992+1035145472
2498.01+1035112000+1034904832+1034514560+1034086656+1033700992+1033253760
2494.15+1032646208+1031974144+1031352384+1030687680+1029823680+1028798144
2490.29+1027796416+1026942144+1026260608+1025717440+1025250048+1024780160
2486.44+1024192000+1023297408+1022020800+1020602560+1019359680+1018240128
2482.58+1016920960+1015337344+1013786560+1012486784+1011325952+1010079040
2478.72+1008694976+1007347392+1006214400+1005195200+1003939904+1002290816
2474.87+1000501312+998847808+997261056+995540352+993653376+991652672+989611904
2470.37+987773120+986376192+985182784+983601344+981443904+979161600+977167552
2465.87+975326528+973344896+971267712+969308608+967419904+965346048+963023040
2461.37+960717312+958761088+957217920+955785216+954032192+951795648+949295040
2456.87+946802752+944357696+941963648+939819264+938052480+936424896+934631552
2452.37+932707840+930821504+928936576+927004416+925193024+923590208+921982336
2447.87+920246400+918547200+916914176+915048576+912882560+910869888+909355584
2443.37+908030848+906360192+904322176+902451008+901220416+900517248+899729152
2438.87+898366144+896561088+894857280+893587968+892658176+891824960+890923456
2434.37+889880256+888763200+887750016+886840320+885755584+884310016+882720448
2429.87+881350080+880335424+879593024+878955520+878206144+877236416+876269376
2425.37+875628032+875237888+874679680+873806336+872920000+872274496+871749760
2420.87+871133504+870408960+869626304+868756864+867810880+866943552+866320576
2416.37+865909824+865430208+864552896+863269120+862037120+861355008+861174464
2411.87+860945920+860281152+859343168+858526336+857981696+857556800+857023488
2407.37+856228288+855139328+853894080+852750080+851889472+851228480+850483264
2402.87+849439872+848155200+846871104+845778624+844867200+843986816+842991872
2398.37+841833536+840552064+839224384+837918272+836676288+835480960+834262144
2393.87+832972224+831652352+830380608+829163008+827922240+826567168+825053888
2389.37+823422080+821775616+820186240+818623232+817020544+815361216+813654912
2384.87+811872832+810020096+808198912+806503680+804889088+803229760+801463680
2380.37+799604416+797682816+795734784+793788864+791806016+789677696+787324224
2375.87+784746112+782010560+779279040+776780992+774584512+772390784+769782336
2371.37+766759296+763806784+761284416+758969536+756411776+753544768+750669696
2366.87+747949504+745266112+742565568+740028672+737776384+735664320+733497344
2362.37+731284544+729124672+727004288+724901760+722947456+721244736+719653952
2357.87+717991424+716356800+714995264+713875328+712665856+711189504+709699008
2353.37+708605056+708006144+707573248+706913408+705928192+704717760+703252928
2348.87+701374464+699083392+696560640+693895360+691037248+688025984+685044864
2344.37+682246912+679648000+677129216+674511104+671775680+669190720+666968512
2339.87+664879616+662532160+659953088+657523456+655427712+653503360+651538304
2335.37+649444096+647217216+644948224+642781952+640753728+638781504+636836096
2330.87+634962432+633168448+631402816+629624000+627784768+625836224+623841536
2326.37+622005952+620472192+619089472+617486784+615484096+613357184+611552384
2321.87+610184704+609006016+607742592+606211776+604260032+601950528+599696384
2317.37+597859392+596342592+594836288+593210624+591431872+589423744+587282816
2312.87+585292672+583533696+581764864+579786240+577645568+575491904+573443264
2308.37+571547712+569739136+567944960+566242944+564677248+563002368+560942848
2303.88+558603584+556315520+554199552+552184320+550266048+548460160+546659456
2299.38+544751168+542737536+540653568+538528704+536454816+534519840+532660544
2294.88+530714336+528622016+526490592+524464896+522563104+520644448+518575008
2290.38+516418464+514370400+512525888+510802688+509086144+507345952+505600608
2285.88+503827776+501932096+499827392+497564320+495329984+493275232+491400768
2281.38+489614848+487805600+485881312+483837664+481748672+479653856+477563936
2276.88+475594464+473894304+472429408+471046848+469686144+468287008+466619040
2272.38+464541728+462315872+460332320+458659424+457099648+455511552+453839488
2267.88+452030752+450122976+448242944+446433216+444636928+442853696+441104768
2263.38+439327136+437487968+435694496+434015008+432341920+430578624+428791296
2258.88+427051968+425328512+423613248+421966720+420361344+418674080+416881056
2254.38+415119872+413515904+412061696+410663232+409235744+407775008+406340384
2249.88+404911360+403325664+401518368+399729856+398251360+396975840+395478752
2245.38+393568096+391500672+389629152+388079840+386819840+385746944+384643296
2240.88+383290624+381759712+380327840+379060096+377688160+376007648+374139552
2236.38+372332512+370709952+369280992+367984224+366675744+365267968+363869824
2231.88+362601952+361333856+359850080+358235904+356814912+355693856+354606816
2227.38+353265728+351704256+350205920+348974848+347917696+346754304+345339616
2222.88+343830752+342478016+341326784+340218944+339014944+337714848+336408832
2218.38+335188672+334062080+332911008+331627200+330275104+328995360+327748480
2213.88+326356992+324828160+323432768+322360064+321476640+320521856+319414816
2209.38+318248384+317097856+315962048+314818624+313670592+312555424+311495680
2204.88+310431200+309248672+307936736+306662656+305621888+304861056+304253152
2200.38+303578304+302646720+301461120+300232768+299112480+297985888+296704000
2195.88+295376352+294251488+293382304+292610656+291787136+290871232+289891840
2191.38+288910528+287945504+286925536+285809312+284689696+283681216+282785664
2186.88+281949664+281127552+280239008+279230112+278184928+277211328+276270656
2182.38+275290944+274353792+273581248+272944128+272296768+271496864+270457824
2177.88+269268640+268190528+267359664+266612304+265794208+265016192+264398224
2173.38+263829136+263169072+262409968+261526736+260487056+259434160+258576080
2168.88+257901376+257290448+256758416+256288512+255645520+254681488+253616528
2164.38+252740928+252039360+251316336+250483664+249575488+248646368+247750448
2159.88+246912512+246117888+245383024+244734800+244078064+243252528+242284288
2155.38+241407600+240771360+240282064+239792416+239280288+238765280+238180048
2150.88+237431456+236565728+235760608+235144848+234688384+234272448+233790912
2146.38+233168128+232377904+231483552+230602016+229822176+229188336+228708672
2141.88+228311712+227877936+227363200+226798096+226184640+225507440+224848064
2137.38+224317008+223906960+223488688+222937408+222203776+221358224+220573888
2132.88+219941600+219363200+218753248+218238064+217940064+217702816+217259616
2128.38+216595136+215947520+215519376+215307680+215137984+214811408+214257424
2123.88+213527200+212681376+211798528+211072944+210679088+210516048+210272816
2119.39+209781632+209170736+208676240+208382000+208127424+207677328+207037232
2114.89+206478560+206128320+205749968+205109136+204353472+203769552+203392496
2110.39+203070992+202721984+202341776+201931136+201538464+201230544+200968880
2105.89+200651232+200252768+199805840+199289296+198675568+198036864+197478976
2101.39+196997856+196519168+196065712+195767280+195656112+195532208+195157152
2096.89+194538400+193923184+193500416+193212544+192878640+192437584+191990160
2092.39+191617696+191250688+190816784+190420048+190178880+189963888+189572992
2087.89+189091088+188746928+188497888+188154528+187783888+187577120+187441040
2083.39+187150880+186750160+186391824+185995712+185440672+184876016+184501840
2078.89+184241824+183885168+183371840+182825536+182438224+182323040+182313616
2074.39+182065584+181493248+180905232+180540992+180269264+179915392+179571312
2069.89+179388944+179310416+179154272+178815808+178291344+177651184+177015408
2065.39+176490208+176114960+175845344+175578688+175251296+174939440+174763632
2060.89+174672992+174522816+174350240+174328704+174422512+174375088+174073344
2056.39+173678128+173321712+172952768+172535808+172210320+172112704+172166704
2051.89+172101456+171668880+170854592+169904528+169173008+168870224+168911600
2047.39+169002448+168918816+168716816+168576848+168468144+168127536+167425712
2042.89+166584128+165965296+165743984+165818288+165926288+165859600+165609232
2038.39+165309088+165038336+164793520+164608304+164492176+164295024+163865712
2033.89+163306768+162879216+162707824+162721040+162758848+162643120+162337616
2029.39+162089488+162162496+162412512+162410224+161978672+161305664+160611552
2024.89+160028000+159699152+159659808+159696000+159571488+159322240+159138208
2020.39+159072176+158962496+158563344+157738400+156669264+155841872+155627728
2015.89+155920272+156278112+156362400+156135184+155761600+155440112+155276592
2011.39+155218544+155132144+154959776+154763744+154597280+154410896+154130704
2006.89+153790112+153503008+153329904+153231216+153149488+153016464+152743328
2002.39+152340976+152008384+151927120+152000960+151997936+151856992+151660528
1997.89+151411888+151079296+150754480+150549392+150420960+150224784+149783136
1993.39+148886688+147580400+146486400+146349488+147077888+147754608+147793072
1988.89+147534256+147525280+147795776+148127168+148482192+148826528+148958432
1984.39+148806528+148573776+148444032+148437312+148549472+148693808+148564896
1979.89+147930032+147023760+146349200+146137824+146229184+146408016+146620704
1975.39+146846144+146929376+146703520+146277856+146024784+146118400+146268992
1970.89+146120432+145696560+145162496+144392528+143191632+141835056+141011984
1966.39+141191840+142190784+143332736+144004656+144082512+143838560+143520896
1961.89+143224688+143065328+143119616+143228096+143215712+143232656+143496096
1957.39+143808896+143747584+143239232+142598160+142099184+141816128+141767536
1952.89+141929072+142139504+142201616+142080368+141928496+141893024+141960128
1948.39+141990320+141824944+141328704+140526304+139785232+139504176+139359888
1943.89+138368464+136248208+134318624+134261968+136161952+138510544+140017824
1939.39+140635072+140877552+140954176+140801088+140442592+140007136+139622288
1934.90+139441152+139563536+139854992+140032336+139990336+139855984+139747680
1930.40+139668272+139605360+139543456+139417952+139196976+138937872+138710992
1925.90+138587632+138543680+138177728+136931088+135014560+133644344+133797072
1921.40+135213392+136913744+137730912+136247360+131969168+127202312+125799800
1916.90+128853816+133436280+136450272+137617728+138083584+138256528+138086144
1912.40+137826176+137541520+136907056+135980928+135338960+135310272+135745376
1907.90+136417888+137100816+137481520+137420832+137136768+136948576+136985104
1903.40+137141456+137204720+137130080+137133216+137312048+137383424+137098672
1898.90+136677104+136514656+136675392+136801600+136365424+135212976+134060248
1894.40+133950648+134959456+136112352+136719440+136753408+135851648+133499000
1889.90+130588624+129289792+130619232+133266120+135331712+136176576+136248336
1885.40+136088352+135956208+135968560+136209408+136709200+137351584+137880640
1880.90+138092688+137960992+137573248+137112752+136833136+136854048+137039264
1876.40+137200608+137291296+137356832+137453648+137585888+137656400+137616896
1871.90+137400336+136244080+132745648+126828424+121265496+119571320+122280752
1867.40+126816688+130771320+133634272+135705440+137083328+137919056+138534016
1862.90+138998928+139121840+138852800+138443824+138197776+138144592+138061120
1858.40+137921024+138082160+138709840+139348928+139487392+139250464+139151152
1853.90+139426208+139873200+140155888+140175808+140175248+140300384+140187344
1849.40+139351632+137838704+136303472+135684000+136163376+135396064+129291072
1844.90+117475368+107155360+107121416+117211736+128861176+135625328+137861312
1840.40+138438288+138731456+138957088+139003040+138438144+137429920+137067824
1835.90+137801440+138796176+139322752+139418240+139275088+138976160+138016736
1831.40+134704976+128162344+121396224+119517728+123920160+130915632+136090912
1826.90+137164624+133892456+128590248+125756240+128009296+133157560+137342624
1822.40+139332144+140190624+140759808+141086160+141056560+140522736+139484816
1817.90+138410256+137857616+137935392+138445264+139109904+139543600+139531360
1813.40+139223568+138608832+137235568+135086992+133301312+133285000+135107440
1808.90+137305936+138470160+138684368+138970736+139636096+140094816+140155600
1804.40+140063648+139301696+137027600+133862224+131432128+130016344+128615896
1799.90+127417304+128054888+131037544+134606704+136575904+136379792+135336960
1795.40+134970960+134336944+129790624+119561592+108223880+103626200+108372080
1790.90+117660408+126022712+131946192+135893840+138077616+139037040+139306256
1786.40+137928000+133999344+129654736+128583192+131419648+135189104+136958368
1781.90+135891264+132888104+130227200+130209912+132683232+135397344+137052752
1777.40+137681712+136774736+134323168+132347304+131168696+125988328+112666480
1772.90+96007568+87178328+91869880+105290576+118659360+125596560+124319568
1768.40+118859288+116781768+121771168+129856648+135282000+136971168+137082896
1763.90+135907904+131201432+122487936+114210664+112745232+119429864+128698600
1759.40+134438736+135262544+132624504+127888960+123705936+124032952+129190936
1754.90+134760640+137671328+138237040+135012000+124798216+110634720+102710472
1750.41+106305072+115084072+120935376+123173848+125291528+128684288+132455256
1745.91+135640096+137366368+136950128+135067104+133915880+135411536+138411392
1741.41+138107040+130830152+120407040+116224832+122370712+133020912+140827152
1736.91+143053936+137649296+120871432+93868672+68466944+60481856+74818736
1732.41+100886040+123492144+134493408+135721344+134425968+135925376+139955760
1727.91+143486832+145029264+145364240+145493376+145283072+144226256+142732688
1723.41+141986048+142674688+144346912+145850544+145772480+142152320+132159792
1718.91+113868760+90989160+75136064+76901208+92364904+107151568+114216992
1714.41+118917256+127228912+137098672+143965584+147122848+147721920+146603856
1709.91+145815424+147238528+149024448+147539968+142348096+136320240+132239496
1705.41+131217888+132912800+136559856+142069984+147167120+143138576+120571704
1700.91+84100512+57433688+63009964+95957888+130795848+146036912+135151600
1696.41+108372784+90068552+100292208+132615568+164019520+181700160+188932528
1691.91+192740640+195096720+196026432+197588640+201113824+205376400+210017440
1687.41+215498320+216966032+204752368+176690288+147798608+140494848+160836128
1682.91+193968240+223202816+241846800+251113232+255670576+260346624+267126480
1678.41+274730688+280573728+281311104+273831584+260573232+252751984+261018896
1673.91+281580352+299894496+307525056+308053792+307679040+306305184+301544640
1669.41+297256608+301668864+316882656+335705024+350176384+358770880+364389664
1664.91+368303744+368428544+363856640+359319712+362257120+374331008+389247488
1660.41+400649120+408127680+414252768+419943232+424941632+429296928+431956992
1655.91+429953920+419415968+396204480+359710368+322325568+310513024+340052288
1651.41+393515680+440367712+465805184+472575648+469305632+462289728+453693472
1646.91+444035424+437162464+441023552+458436992+480114080+494159968+498591232
1642.41+499309728+499982624+499941856+499175648+498295776+495532928+489343168
1637.91+480791136+468772288+448737920+423074208+407090944+413600960+434952160
1633.41+452975584+459224864+457027968+451761696+445707712+438954528+430174752
1628.91+417938624+403751648+391916832+385046848+381349472+376197088+365066208
1624.41+347147680+328117280+316533696+314965312+317592800+317577696+313215104
1619.91+306903520+300167936+289405696+268071776+237190816+212534368+211647744
1615.41+231136512+251105008+259643136+259607552+257125456+253941152+250347296
1610.91+247361760+244743584+241734032+239276720+238227040+237412304+235934432
1606.41+234763984+234496880+234257584+233546208+232696208+231684912+230535040
1601.91+229973136+230158368+230158656+229633296+229246096+229134576+228868720
1597.41+228669280+228827584+228660544+227667040+226644240+226467296+227059088
1592.91+228178608+229679632+230860640+231098560+230851328+230846272+231154736
1588.41+231888944+233393376+235212720+236496048+237364256+238282352+238883088
1583.91+238985856+239365536+240285936+241206416+242349264+244104912+245551168
1579.41+246188304+246379936+242543376+227227952+200834912+180054816+183865712
1574.91+209527008+236772576+252249136+257571664+259285392+258604016+252067776
1570.41+239634848+228903824+228889760+239895424+253624752+262587200+265001136
1565.92+262671536+258765936+256806976+258405488+261990336+263922816+258708144
1561.42+240083360+207358864+170734784+144442016+134347008+139678784+161110096
1556.92+194319376+223309488+233043216+224877216+214786400+216592496+229249344
1552.42+242145456+247293200+244295776+238228080+234789680+236097984+240189632
1547.92+243704320+243837600+238545312+227951808+216707968+211196656+210889296
1543.42+206816096+193249264+176220688+164281088+154522480+139032064+123342104
1538.92+125324896+151153248+185350736+210001424+219919472+218589920+209591344
1534.42+196005440+184356064+182333808+190579760+201653472+208998128+212156992
1529.92+212544208+209797328+204717488+200574880+198068416+193789808+186909024
1525.42+182555136+184882560+190100128+189698880+178378512+158436624+139783392
1520.92+134892432+148583328+171986080+189663088+192695040+185174448+179120528
1516.42+181997312+190899200+199778224+206087696+208616208+205995472+200503680
1511.92+197643712+198922800+200105840+197835008+192000064+181298096+162837072
1507.42+138216688+116748376+110496064+125100208+154486240+185095872+206015440
1502.92+215148128+217252688+217872864+218640608+217093904+211434240+205179184
1498.42+203380064+203613616+198379856+188892224+187509504+200836688+219601824
1493.92+232151280+237008720+237789168+234812528+227306656+219081408+216417088
1489.42+221188176+229079488+234770224+237539088+241234112+248717152+257983424
1484.92+265296112+269857472+273146816+275712480+277262176+278700576+281562752
1480.42+285968800+290924064+295924960+300352928+302139008+299915744+296612000
1475.92+297328544+301999296+304093696+298936960+290089216+285878240+291794624
1471.42+307364960+327477312+345164128+355986912+361046080+364410752+367872832
1466.92+369469536+366340512+358595488+351748576+353560832+365133248+378519296
1462.42+386641536+390300608+392516352+392157184+387383296+379021952+366150976
1457.92+345941472+323858400+316378656+333304256+363756608+389787104+404072192
1453.42+409623136+411108896+411096512+411274816+412663584+414257952+413551136
1448.92+409441152+404308800+402422592+405648576+411411040+415649504+416802912
1444.42+416148480+415238304+414389632+413544544+413020896+412687360+411755648
1439.92+410141056+407895136+402017568+387568640+365949152+349459808+350331168
1435.42+365097184+378942784+383179488+380447904+376354432+372542304+367829504
1430.92+361397792+353955840+347917984+345538816+345704320+344986496+342296064
1426.42+339140704+335468352+329586048+322211968+316363584+313381024+312353920
1421.92+311475840+306531872+292236160+270388896+253372768+252252880+263322448
1417.42+274475424+279916576+281848384+282935488+283206624+282486336+281325952
1412.92+279848000+277912000+275834176+273930368+272226272+271005792+270647776
1408.42+270860960+270783392+269565952+266502176+261648448+256977008+255467632
1403.92+257743408+260876960+261856256+260674480+258458448+254433584+247505088
1399.42+239817568+235515552+235804448+237787648+237855312+233977504+226238048
1394.92+217898048+214324800+217719168+224213856+228472944+229017408+227629008
1390.42+225863968+223474784+218849648+210890624+201857728+197080944+199310352
1385.92+205021072+208970800+209899536+209570896+209008672+208147968+207230080
1381.43+206434560+205386384+204018384+202822560+202026848+201509344+201173504
1376.93+200578720+198871952+195754880+192024256+189074960+188308832+190375376
1372.43+194238880+197755584+199694032+200304096+200019008+199055744+198229120
1367.93+198419312+199207328+199513920+199131904+198167456+195874400+191837808
1363.43+187613472+185395200+185516928+186808016+188693536+191287392+193984416
1358.93+195588672+195750352+195193312+194604624+194072064+193543856+193176240
1354.43+193114032+193266912+193378272+193228128+192827200+192416576+192166000
1349.93+191979088+191728112+191502080+191396064+191264400+190970960+190704240
1345.43+190733936+191018016+191306768+191466672+191376528+190626928+188762784
1340.93+185999072+183407536+182128256+182403408+183515360+184574720+185196800
1336.43+185488176+185673200+185890112+186201296+186596256+186916576+186957136
1331.93+186702224+186399216+186314656+186536400+186967600+187341008+187285920
1327.43+186692016+185976544+185652448+185712576+185774464+185662608+185463328
1322.93+185245472+185086288+185034464+184751424+183711856+182101872+180912912
1318.43+180780016+181313312+181859664+182270816+182599536+182634192+182144672
1313.93+181276352+180459104+180068864+180208256+180699984+181244304+181568784
1309.43+181485264+181036288+180644608+180784336+181357536+181685376+181313920
1304.93+180567072+180150864+180386224+180958160+181313760+181238352+181017872
1300.43+181034960+181351856+181770336+182102576+182211648+182027024+181716256
1295.93+181634208+181967136+182582976+183244864+183744080+183927232+183864112
1291.43+183877456+184120768+184332112+184305104+184329376+184797312+185606096
1286.93+186312608+186700624+186927200+187227920+187688928+188219392+188670256
1282.43+189054320+189549424+190200096+190782560+191116592+191313168+191583168
1277.93+192005312+192595648+193390800+194355248+195384720+196394672+197244016
1273.43+197693040+197704896+197688848+198181200+199292224+200601072+201576656
1268.93+202085824+202555152+203587664+205360736+207457424+209336928+210788976
1264.43+211935664+213008224+214189888+215531312+216986928+218590784+220459840
1259.93+222569232+224746816+226945024+229260160+231674512+234067120+236466336
1255.43+238993776+241601184+244171264+246804880+249698832+252765008+255651216
1250.93+258142928+260352016+262520464+264838176+267474768+270555680+273973280
1246.43+277380672+280568608+283781376+287449440+291688160+296205568+300659040
1241.93+304933024+309131680+313430240+317895520+322378080+326669888+330798720
1237.43+335073760+339766592+344789696+349727648+354234368+358418624+362762464
1232.93+367597280+372783456+377949472+382878720+387600576+392310592+397250272
1228.43+402455392+407582720+412212064+416297856+420170272+424160224+428395936
1223.93+432852224+437440320+442042464+446498464+450595232+454255840+457729056
1219.43+461304640+464785024+467690464+470087648+472666272+475763616+478841216
1214.93+481219648+482852704+484118400+485297632+486508608+487780128+488967680
1210.43+489851328+490378784+490586624+490381920+489707296+488796064+487888512
1205.93+486842336+485354432+483434496+481321056+479072672+476569376+473820192
1201.43+470974912+468082560+465047296+461802528+458414656+454972928+451417440
1196.94+447575968+443422784+439173728+435016288+430884544+426685152+422548000
1192.44+418652128+414992128+411487520+408101376+404697824+401073632+397294848
1187.94+393707520+390517792+387591968+384697440+381717504+378662368+375666496
1183.44+372902304+370392736+368085216+366072832+364475744+363122144+361660320
1178.94+359953280+358171744+356603104+355488960+354823136+354258528+353476160
1174.44+352574464+351807168+351137152+350447936+349918784+349772640+349871296
1169.94+349906784+349780992+349618592+349640416+350004416+350542688+350826624
1165.44+350740928+350666528+350899904+351324832+351826592+352519392+353446048
1160.94+354528960+355763456+357030624+357962336+358447392+358908032+359691552
1156.44+360663936+361714656+363049056+364727552+366484864+368195328+369994816
1151.94+371941344+374042208+376504832+379489248+382724832+385754880+388431872
1147.44+391003904+393831584+397088608+400664960+404451168+408624736+413326336
1142.94+418183840+422690080+426948608+431469056+436370912+441413760+446621280
1138.44+452209248+458048352+463812512+469569728+475760320+482639648+490030720
1133.94+497533664+504875200+512137504+519660640+527647168+535968224+544438208
1129.44+553085888+562005952+571095936+580102912+588924544+597807360+607121600
1124.94+616893568+626724352+636340736+646015232+656133952+666582208+676970688
1120.44+687267392+697772480+708555456+719305024+729791936+740147712+750606080
1115.94+761125824+771433600+781439808+791375360+801357248+811047360+820143488
1111.44+829044352+838519872+848648576+858568448+867449088+875380608+883136768
1106.94+891274176+899608320+907453568+914393216+920832960+927635840+935084928
1102.44+942472128+948995904+954864896+961072064+968052608+975031936+980966528
1097.94+985794368+990357376+995296064+1000615744+1006195776+1011980352
1094.08+1017586368+1022437248+1026498112+1030257792+1034003136+1037767936
1090.23+1041855552+1046518976+1051178944+1054882304+1057520768+1059811648
1086.37+1062172864+1064432896+1066502784+1068551168+1070465664+1071787200
1082.51+1072302528+1072388480+1072646400+1073256064+1073741824+1073423040
1078.66+1071931200+1069244736+1065490752+1061005952+1056286400+1051584000
1074.80+1046791232+1041769536+1036324864+1029938560+1022250560+1013794432
1070.94+1005477184+997344896+988643776+979046208+968972096+958705600+947978368
1066.44+936622720+925035840+913669120+902396096+890742336+878614784+866369152
1061.94+854056832+841137728+827307456+813201856+799753984+787173760+775040384
1057.44+763097664+751323712+739428992+727013312+714284736+701988608+690442816
1052.94+679170304+667701120+656166912+644859456+633737408+622621248+611450496
1048.44+600238528+589193536+578803392+569229440+559909888+550398976+541151104
1043.94+532696480+524565920+515937856+506889440+498197600+490251904+482820032
1039.44+475577632+468432032+461501760+454916608+448577888+442261440+435971872
1034.94+429829376+423731328+417617600+411821504+406521312+401279904+395843264
1030.44+390827392+386833024+383509952+380215808+376934752+373872544+370841024
1025.94+367684576+364791040+362647712+361204576+359975072+358582848+357055840
1021.44+355632800+354336512+352909184+351363456+350315040+350362560+351268320
1016.94+352125248+352295104+351990048+352008832+353000576+354930752+357223040
1012.45+359430816+361626016+364042688+366660448+369421344+372642112+376812352
1007.95+382001920+387822784+394006528+400663040+407867840+415397152+423145728
1003.45+431456896+440687104+450687872+460990592+471333600+481787616+492560416
998.95+503762592+515210624+526562592+537811264+549346624+561302208+573260800
994.45+584879232+596251200+607404288+618004608+627814208+636793536+644591552
989.95+650667392+655010112+658005888+659554176+659065152+656350336+651805760
985.45+645752320+638253824+629511744+619905024+609693056+599006848+587968320
980.95+576594496+564819840+552747264+540618176+528532160+516507680+504758656
976.45+493536512+482735008+472022400+461348960+451036128+441308736+432008224
971.95+422858784+413904096+405502144+397892192+390890912+384136672+377499552
967.45+371104608+365100192+359569920+354560928+350046080+345901824+341992768
962.95+338255040+334776416+331839872+329654368+327941152+326097024+323914784
958.45+321778336+320063776+318747936+317660864+316673696+315602880+314347840
953.95+313133952+312290592+311855520+311610560+311322208+310803904+310063552
949.45+309515936+309665120+310461696+311265312+311485376+311072416+310479872
944.95+310264672+310604416+311122656+311368896+311360928+311421024+311701696
940.45+312213152+313020896+314018016+314774496+314973472+314757856+314421536
935.95+314117248+314032928+314396896+315084256+315671264+316074240+316692192
931.45+317693696+318601504+318870880+318560352+318145952+317961024+318068096
926.95+318475104+319172480+320034880+320832096+321312704+321307040+320903200
922.45+320447360+320195456+320085056+320023808+320178016+320694496+321344672
917.95+321708896+321567552+321011392+320424544+320303136+320713600+320998880
913.45+320530976+319664768+319345152+319845984+320524640+320768224+320547424
908.95+320057728+319417760+318808960+318432128+318256416+318088576+317906624
904.45+317835296+317832384+317678464+317265408+316700928+316114304+315594432
899.95+315273504+315275808+315527904+315771744+315815168+315666752+315451136
895.45+315278944+315164736+314987264+314556000+313810272+312891936+312022976
890.95+311364320+311021376+311025856+311254592+311452928+311376896+310875808
886.45+309948992+308853920+308025536+307712448+307757408+307850240+307867392
881.95+307827680+307717984+307556640+307441920+307375040+307243936+307076000
877.45+307004384+306887552+306358624+305487808+304979936+305383200+306357088
872.95+307044736+307030048+306622176+306218400+305771616+305125312+304561856
868.45+304508288+304816320+304930144+304736192+304595744+304580576+304504608
863.95+304607392+305309760+306282304+306703936+306367264+305698656+304908512
859.45+303980064+303264800+303337952+304440128+306274048+307860480+307760480
854.95+305531360+302926816+302406304+304499264+307605088+310076416+311398272
850.45+311821216+311992576+312609248+313616288+314249248+314321344+314483072
845.95+314776000+314126304+312193280+310673984+311450752+313979104+315783616
841.45+315618464+314864512+315461152+317542272+319505344+319508768+316764832
836.95+312374336+309067712+308829376+310634944+311594464+310401344+308350944
832.45+306958080+305995840+304544416+302529056+300374048+298142912+296004128
827.96+294652832+294267072+293913184+292942944+291936544+291326496+290429376
823.46+288925472+287764416+287338208+286360320+284022560+281662368+280767104
818.96+280699200+279859040+278009664+276283072+275547648+275648512+275853088
814.46+275544320+274713024+273860896+273353600+273078240+272740096+272221152
809.96+271621376+271276224+271558912+272369248+272953664+272600864+271449632
805.46+270490848+270770560+272490176+274844992+276693600+277406240+277141568
800.96+276663488+276940320
##END=
