##TITLE=octarelline 6 front
##JCAMP-DX=4.24
##DATA TYPE=INFRARED SPECTRUM
##DATE=31/1/2005
##TIME=17:1:36
##SAMPLING PROCEDURE=film
##ORIGIN=Vincent
##DATA PROCESSING=no operation
##XUNITS=1/CM
##YUNITS=ABSORBANCE
##RESOLUTION=2
##FIRSTX=4000.283
##LASTX=800.31372
##DELTAX=-0.64282227
##MAXY=0.23529412
##MINY=-0.0044977171
##XFACTOR=1
##YFACTOR=2.1913472e-010
##NPOINTS=4979
##FIRSTY=0.0057347324
##XYDATA=(X++(Y..Y))
4000.28+26169893+26152536+25974316+25673928+25390094+25219836+25195552+25325126
3995.14+25496348+25442024+25043974+24574002+24414938+24588714+24790252+24834634
3990.00+24889536+25214214+25707912+25871388+25374900+24545178+23997486+23932680
3984.86+24133080+24420078+24683442+24724226+24522332+24397358+24491358+24471146
3979.71+24113230+23720226+23630328+23728956+23788730+23894418+24240578+24769918
3974.57+25183348+25214094+24846234+24346054+24039214+24028330+24166202+24271910
3969.43+24308622+24402022+24721834+25238502+25590402+25368916+24609286+23865366
3964.28+23670376+23970462+24239264+24167634+24006332+24132600+24537762+24942646
3959.14+25187178+25260874+25193038+25082974+25012632+24857000+24427016+23791242
3954.00+23215430+22890602+22876620+23081690+23201806+23037474+22856424+22988832
3948.86+23165830+22846628+22108266+21617374+21770242+22300238+22676706+22578250
3943.71+22068490+21494730+21190480+21309164+21851458+22619952+23196070+23339974
3938.57+23337702+23567208+23944156+24200280+24412544+24743364+24874704+24200402
3933.43+22586734+20751744+19788768+20165236+21239434+22017486+22283870+22620548
3928.29+23454482+24499132+25060720+24646602+23387308+21982606+21089952+20878400
3923.14+21261522+22084020+22823206+22822964+22175280+21720202+21818494+21811448
3918.00+21020706+19724936+18916302+19311692+20671886+22107070+23099142+23911994
3912.86+24828652+25591356+25909210+25887306+25697022+25452314+25387938+25478398
3907.72+25208352+24284108+22873154+20736462+17433132+13834909+11730156+11381304
3902.57+11412668+11374886+12131244+13561925+14341485+14332561+15050174+17345184
3897.43+20280280+22570126+23818858+24289966+24428572+24605216+24632608+23610004
3892.29+20900484+17399882+15265867+15852947+18383394+21164930+23228220+23898842
3887.15+22017246+17350664+12406052+10907076+13902952+18888154+22877220+24668010
3882.00+24308502+22197382+19418096+17836210+18713686+21413172+24224314+26169772
3876.86+27263280+27391550+26062526+23462252+20917318+19906776+20769170+22173846
3871.72+21652486+17482228+10915628+6014751+6121867+10784975+16885730+21517422
3866.58+23004606+20997422+17171802+14844740+16075395+19352486+21526018+21636960
3861.43+21513958+22814240+25006890+26633898+27004604+26249496+25045050+24135110
3856.29+22394258+16205327+3575299-11214478-20184420-20257152-15073560-7909644
3851.15+1064856+10872037+18634624+22929800+25013228+26513818+27836438+28745558
3846.01+28975452+28196466+26325150+23983376+22261176+21783860+21982008+21721754
3840.86+20821218+19862624+18030866+13236651+5974229+1006825+2306020+7818709
3835.72+12721915+15551824+18053994+20923166+22563794+21782306+19770512+19018510
3830.58+20795672+24011112+26592354+27490368+26943896+25529134+23969268+23352642
3825.44+24253494+25814902+26525432+25361258+21736086+15692437+9158694+5608618
3820.29+6979115+11867645+17439804+21231316+20963994+15514560+7438886+2573674
3815.15+4755988+11909834+19163306+23798772+26015128+26983292+27535404+28051488
3810.01+28527196+28381958+26370280+21520764+15010658+10542455+11161757+15788526
3804.86+20716050+23557406+23651486+20123112+12604337+4043868-6142+3237463
3799.72+10909214+18161286+22373590+23486042+22626644+21422606+21408992+22986326
3794.58+25176288+26757104+27370234+27471442+27593858+27844222+27929760+27611826
3789.44+27111426+26910964+27139088+27445930+27491084+27211664+26650304+25959476
3784.29+25514414+25601048+26078328+26595466+26791824+26119622+24182584+21649622
3779.15+20092324+20451068+22241104+24469590+26508190+27955640+28501910+28231332
3774.01+27648242+27267114+27182320+26749676+24880566+21307376+17523822+15773881
3768.87+16850584+19376940+21275496+21513480+20643358+20076216+20718320+22251258
3763.72+23782632+24855206+25486772+25512140+24379300+21887292+19093886+17867322
3758.58+18877900+20618888+21302120+21020706+21114666+22082468+22772062+20897142
3753.44+14447506+4399481-4050958-6315450-4747546-5251626-8350576-8619464
3748.30-2833284+5942475+12610401+13326795+5764522-8258116-20158698-20524894
3743.15-9802792+3126836+11839480+16157926+18294928+19576044+20150082+19365964
3738.01+16413044+11599209+6559511+2886672+1445943+2688883+5880983+8398369
3732.87+8005979+5921267+5855628+9587988+15129568+19585944+21855400+22268340
3727.73+21298896+19465694+17656470+16757064+17060040+18100606+18901156+18616502
3722.58+17464828+16783272+17609870+19416426+20804864+21118722+20831126+20746372
3717.44+21341526+22523410+23610722+23905180+23314994+21767376+18347628+12547274
3712.30+6461260+3708437+5236206+8315447+10523929+12301687+14929126+18163670
3707.16+20940838+22835274+23905300+24195258+23915702+23261684+21876898+19392924
3702.01+16620306+15321459+16466524+19215432+21856478+23352406+23816226+23857594
3696.87+23831534+23680656+23179336+22301790+21490788+21187136+20737538+18676722
3691.73+14970190+11753802+10173152+7904336+2539846-3502236-4532350+1400194
3686.59+10198324+17003682+20427914+21578442+21680672+21436814+21307970+21393230
3681.44+21319556+20636314+19341870+18048274+17475198+17300140+15530393+9957183
3676.30+990043-7229231-9693707-4986524+3860285+12151212+15947853+13528859
3671.16+6796209+699796-845143+1806056+6172819+11065179+16173528+20452500
3666.02+22859888+23607972+23592910+23425200+23434402+23679464+23830816+23710902
3660.87+23601398+23603548+23476478+23202762+22524964+20258920+15834491+11309306
3655.73+9883813+12323202+16550858+20205334+21841426+20664006+16822112+11485858
3650.59+5866055+854959-2292484-2430057+9214+3494947+7320080+11746672+16546691
3644.80+20718078+23532542+24972316+25314832+24977698+24598640+24656288+24995402
3639.66+25088834+24775064+24462298+24613348+25263504+26033682+26346456+25686492
3634.52+24081782+22456384+22027638+23029462+24153046+23254396+18725848+10913135
3629.37+2792034-1443943+354534+6575748+13786375+19554688+23269454+25425988
3624.23+26730642+27523546+27815230+27624402+26838640+24949588+21791860+18503942
3619.09+16753253+17021436+18554376+20665916+22937448+24666216+25318184+25106780
3613.95+24340792+23005444+21733340+21903654+23591118+24690974+23442890+20825992
3608.80+19310738+19893406+21582982+23366508+25282170+27540074+29648506+30833916
3603.66+30930022+30475446+30096892+30068828+30334260+30611366+30567818+30267810
3598.52+30274406+30860672+31379062+30987016+29798876+28776482+28707686+29681480
3593.38+31254610+32719940+33571236+33877752+33815752+32941888+30750890+27854882
3588.23+25681946+24971358+25445612+26876360+29304038+32173706+34357628+35311236
3583.09+35550192+35794708+36141384+36322204+36364436+36572956+36952392+37130032
3577.95+36988136+36936624+37303488+37842104+38169276+38332456+38599116+38994240
3572.81+39356296+39616468+39789052+39793028+39421968+38453980+36856352+34938372
3567.66+33234736+32228576+32250312+33391870+35304984+37318892+38958576+40169824
3562.52+40993572+41376860+41401952+41399784+41722832+42497384+43496208+44253576
3557.38+44519224+44584100+44863560+45253292+45285316+44790096+44046660+43422076
3552.24+43198468+43580132+44543508+45741244+46704820+47101924+46893388+46356288
3547.09+45889452+45727220+45912912+46433560+47210916+48093516+49027240+50054200
3541.95+51063384+51785816+52118816+52178600+52084496+51935576+51867184+51872152
3536.81+51783152+51641044+51772968+52343916+53141188+53894000+54502344+54925180
3531.67+55163724+55322356+55452216+55436300+55180480+54766576+54335644+54007488
3526.52+53900668+54034684+54303588+54725652+55469344+56411896+56993788+56904312
3521.38+56692304+57259560+58748516+60292292+60977044+60799320+60452804+60400672
3516.24+60507728+60569720+60749252+61243472+61854336+62224496+62323000+62365532
3511.10+62388088+62307508+62350780+62938684+64049264+65104800+65664208+65830280
3505.95+65834556+65697792+65484108+65460052+65736260+66107144+66395524+66686636
3500.81+67167800+67955424+69002632+69994472+70494320+70406432+70136800+70176576
3495.67+70659936+71330272+71828976+72052536+72252224+72633648+72997744+73108544
3490.52+73169712+73453720+73777264+73882832+74001896+74453928+75102112+75725976
3485.38+76395320+77017496+77109848+76508152+75760704+75477576+75743152+76334312
3480.24+77040224+77701792+78278168+78857672+79397616+79680936+79681792+79692112
3475.10+79942272+80384336+80856784+81182152+81221656+81115080+81292544+81964032
3469.95+82783168+83279472+83433968+83606352+84024712+84516896+84741136+84646080
3464.81+84596272+84901040+85340160+85460776+85264936+85210680+85515296+85907792
3459.67+86194872+86598600+87287568+87889472+87853160+87208576+86655504+86807792
3454.53+87541640+88231304+88490688+88448936+88351472+88233776+88132496+88284528
3449.38+88799648+89303616+89283488+88782584+88473144+88930832+90033080+91180096
3444.24+91962592+92484472+93037312+93599960+93831424+93530112+92938144+92458480
3439.10+92285456+92422208+92854696+93457680+93925072+94045096+93993560+94135768
3433.96+94567512+94998744+95049304+94588824+93888408+93490240+93804440+94715712
3428.81+95671784+96203432+96302904+96227744+96065672+95628768+94815216+93941912
3423.67+93553272+93861648+94487856+94866632+94852752+94808640+95135184+95838160
3418.53+96561096+96903072+96697408+96121104+95531952+95179560+95117464+95402536
3413.39+96138592+97150680+97876464+97839736+97161472+96410664+96015712+95930528
3408.24+95824144+95520800+95233600+95289000+95637072+95872384+95797248+95695592
3403.10+95848080+96047696+95860720+95260368+94735784+94710264+95020064+95111280
3397.96+94724872+94145808+93754528+93645904+93794272+94225088+94804928+95240168
3392.82+95434640+95511256+95456584+95165920+94837392+94791176+94916824+94820536
3387.67+94434696+94009784+93633880+93235520+92937888+92948160+93191200+93359352
3382.53+93251632+92936280+92671360+92712088+93121616+93732232+94288384+94543240
3377.39+94366056+93950328+93738664+93885560+94009288+93757864+93337672+93183904
3372.25+93391304+93786232+94248624+94671224+94856104+94700216+94309448+93791672
3367.10+93127928+92308592+91486752+90916160+90758000+90877568+90941264+90876456
3361.96+91037728+91645848+92304136+92491152+92242256+91890448+91487984+91011768
3356.82+90765776+90938296+91118496+90897368+90598592+90760464+91260256+91575328
3351.68+91575944+91532888+91638920+91916312+92288296+92521224+92431496+92195352
3346.53+92059600+91832184+91127528+89980056+88830520+88075328+87882680+88171152
3341.39+88604320+88960864+89473048+90355128+91196176+91399784+91042440+90696280
3336.25+90591416+90452560+90048040+89511736+89198832+89320560+89670416+89828752
3331.10+89719240+89672656+89847168+90007624+89969176+89814664+89602072+89297320
3325.96+88970624+88717728+88508960+88364328+88477216+88911552+89448576+89830984
3320.82+89936912+89741864+89360104+89033640+88921696+88973472+89015344+88826200
3315.68+88343200+87963688+88250080+89117528+89872632+90214936+90467768+90691704
3310.53+90456512+89708736+89023256+88811000+88986184+89427936+90097368+90752544
3305.39+91110464+91151032+90914312+90329672+89573400+89148056+89293368+89704656
3300.25+90043840+90341656+90696528+90939288+90861128+90590688+90506352+90754160
3295.11+90995560+90784216+90157568+89671416+89786112+90369472+90862368+90786808
3289.96+90108736+89261736+88823352+88939864+89121984+88818296+88113600+87551144
3284.82+87349536+87215848+86932192+86628224+86414000+86202024+86035352+86122816
3279.68+86384880+86425240+86088896+85634432+85218192+84649544+83828024+83025328
3274.54+82563448+82422448+82310264+82050584+81857168+82056608+82453112+82316176
3269.39+81336608+80202040+79705896+79672936+79382616+78678696+77920728+77152608
3264.25+76166136+75203344+74816144+75023096+75238064+75029856+74492928+73869952
3259.11+73218976+72507320+71749000+71003592+70392720+70060928+69993744+69923616
3253.97+69598144+69093392+68708368+68564184+68436520+68046864+67423584+66864764
3248.82+66563368+66393448+66156852+65921872+65927000+66181520+66380128+66248700
3243.68+65813064+65252256+64659280+64033516+63408824+62899788+62653132+62707496
3238.54+62824312+62578148+61815820+60976316+60685428+61002384+61335712+61157588
3233.40+60550724+59886088+59266708+58577688+57921128+57644196+57853628+58179372
3228.25+58204068+57992412+57917484+58015764+57889388+57339208+56737040+56515932
3223.11+56595184+56576220+56276744+55817896+55390988+55084892+54837256+54554920
3217.97+54363928+54564512+55149992+55623992+55530204+54890444+54013200+53228680
3212.83+52915148+53248336+53816068+53978240+53709740+53592744+53910260+54233288
3207.68+54028368+53319812+52579352+52151556+51949276+51724584+51448396+51232608
3202.54+51044960+50820368+50713604+50860976+51051628+50988848+50682336+50274340
3197.40+49781632+49300184+49115148+49366428+49858304+50263432+50297480+49845224
3192.26+49172548+48766920+48776116+48950716+49176908+49514552+49725908+49436308
3187.11+48762196+48178720+47857036+47691612+47719324+47953732+48099448+47951428
3181.97+47750428+47754784+47831504+47805968+47834168+48109732+48480244+48618612
3176.83+48430248+48143500+48051272+48220356+48455184+48547552+48507240+48471524
3171.69+48467168+48401316+48266956+48243112+48514132+49005804+49389564+49441640
3166.54+49343296+49483300+49976304+50541156+50878312+50995264+51094056+51284972
3161.40+51499672+51618248+51594848+51457000+51226548+50867036+50359640+49845348
3156.26+49544948+49490328+49482696+49423712+49470828+49714768+49983692+50138392
3151.11+50260408+50320500+50070184+49492868+48955432+48678540+48465592+48176544
3145.97+48002020+48059624+48161896+48192396+48299640+48540528+48669580+48458336
3140.83+48004316+47584408+47353196+47236684+47023776+46483988+45548200+44487324
3135.69+43809696+43780232+44110312+44345744+44446616+44650548+44901024+44879996
3130.54+44567668+44272056+44091112+43795452+43291428+42832444+42727064+43027036
3125.40+43470128+43627832+43248568+42531296+41961960+41820916+41974384+42102404
3120.26+42068984+42018668+42097580+42127868+41775552+41087516+40564652+40569352
3115.12+40945576+41324276+41482292+41340680+40945812+40548736+40426000+40530052
3109.97+40548136+40346068+40155232+40233828+40464100+40400320+39780012+38906652
3104.83+38368948+38394840+38646820+38659824+38310052+37840904+37608656+37827420
3099.69+38430852+39121464+39591768+39716740+39574528+39314964+39037728+38797512
3094.55+38652356+38600084+38485416+38161928+37745784+37492240+37423020+37361864
3089.40+37325152+37529076+37968536+38341852+38464456+38453740+38465176+38511308
3084.26+38573820+38665364+38740772+38688012+38456148+38115924+37788764+37537264
3079.12+37325996+37122936+37067568+37420488+38202148+38943876+39037612+38380028
3073.98+37468644+36835652+36586672+36545768+36573436+36649732+36842144+37208032
3068.83+37583488+37621292+37287596+37021956+37052160+36959128+36397884+35785204
3063.69+35675632+35938328+36135968+36253268+36430376+36450828+36106860+35697640
3058.55+35648328+35925576+36173748+36172308+35924976+35537804+35145052+34823436
3053.41+34548144+34336360+34341284+34647316+35099848+35468408+35682728+35780996
3048.26+35704980+35306544+34601876+33899864+33543482+33575924+33808896+34155712
3043.12+34631692+35097200+35305948+35241856+35116076+34998844+34740844+34290324
3037.98+33837980+33545524+33357388+33220204+33335644+33914884+34709588+35102732
3032.84+34844472+34413520+34396328+34740728+34952192+34813816+34542856+34329748
3027.69+34129272+33865496+33584696+33415412+33503592+33893016+34392128+34698168
3022.55+34698168+34532520+34387320+34385396+34592020+34899656+35025056+34872608
3017.41+34762000+35033232+35580616+36043584+36281060+36351812+36230892+35889252
3012.27+35543576+35505088+35821648+36268188+36608212+36724576+36583540+36221148
3007.12+35776064+35487776+35590120+36064272+36514716+36521936+36173748+35983312
3001.98+36238716+36707364+37067808+37316128+37616484+38004900+38384244+38662836
2996.84+38817268+38890148+38977004+39145200+39378228+39628280+39911988+40300620
2991.69+40789532+41216204+41406536+41400748+41412808+41575780+41896084+42369336
2986.55+42925996+43353368+43576512+43850640+44378480+44947912+45290028+45543968
2981.41+45970216+46483144+46830728+47024508+47291004+47765792+48421412+49147240
2976.27+49824148+50441432+51055996+51598120+51936908+52197036+52697624+53508268
2971.12+54384692+55144892+55806484+56386492+56868932+57291788+57692476+58099328
2965.98+58653972+59454764+60267572+60703940+60718676+60610032+60613080+60777392
2960.84+61110436+61556984+61942088+62147216+62213892+62178420+62003392+61706384
2955.70+61383596+61057320+60677144+60269764+59943184+59711620+59413140+58889920
2950.55+58206012+57626076+57370216+57492304+57965648+58662244+59228248+59288012
2945.41+58924724+58675876+58888944+59340472+59628472+59681800+59716248+59887424
2940.27+60132532+60325048+60482152+60756684+61212900+61723568+62148316+62449168
2935.13+62571808+62475620+62337372+62408928+62648124+62818340+62925156+63118680
2929.98+63251740+63065516+62743592+62740552+63090152+63376252+63338200+63081732
2924.84+62776268+62509512+62355908+62300444+62191096+61935260+61597804+61190356
2919.70+60589448+59812184+59145604+58785508+58523664+58042036+57424448+57040960
2914.56+56923640+56657416+56054600+55523404+55449176+55536400+55223116+54503076
2909.41+53857340+53481452+53059040+52332516+51504404+50948604+50725604+50551456
2904.27+50183588+49677944+49235756+48954344+48871164+49043584+49345600+49387144
2899.13+48997208+48629148+48866196+49599456+50118772+49965516+49346084+48702144
2893.99+48183440+47643580+46999952+46415176+46067184+45875312+45684188+45608276
2888.84+45837476+46199336+46350724+46314688+46358228+46455088+46398012+46288932
2883.70+46373824+46552316+46560180+46466452+46541912+46815248+47132648+47442484
2878.56+47710492+47786604+47593124+47302496+47158780+47215880+47347752+47461712
2873.42+47613808+47851592+47986164+47730336+47107372+46466696+46019904+45646836
2868.27+45214736+44758440+44286792+43747024+43185912+42743360+42528280+42629416
2863.13+43055888+43569624+43831560+43795328+43669376+43501516+43153920+42673956
2857.99+42292824+42079484+41942172+41916592+42126060+42472764+42657544+42535276
2852.85+42246120+41989708+41840464+41787740+41795584+41757456+41556956+41242860
2847.70+40996588+40879368+40793872+40720916+40706212+40567548+39946704+38824372
2842.56+37693412+37070100+37003176+37141108+37137976+36931928+36713264+36652136
2837.42+36716032+36781496+36781496+36638540+36291892+35927744+35891172+36201300
2832.27+36469960+36429292+36207796+35998832+35819124+35654584+35523972+35370996
2827.13+35133632+34863472+34606204+34317840+34051880+34044912+34449576+35083132
2821.99+35580376+35764876+35805888+35938932+36076908+35916072+35463120+35136636
2816.85+35222616+35561736+35905244+36167852+36199496+35781352+35061128+34562332
2811.70+34560644+34782680+34835576+34646356+34388520+34248736+34345972+34670640
2806.56+35043212+35244016+35207220+35037920+34873328+34787008+34762964+34676648
2801.42+34416400+34119900+34142852+34626524+35237760+35561256+35557404+35413452
2796.28+35184492+34904460+34761520+34818388+34847600+34757432+34839304+35279252
2791.13+35822852+36194316+36433740+36574760+36437348+36000756+35609364+35584708
2785.99+35869880+36192516+36392236+36498112+36601600+36736608+36904608+37130516
2780.85+37397500+37564596+37518244+37324192+37109692+36948776+37009432+37472372
2775.71+38111112+38365456+38101356+37859080+38095212+38638504+39118448+39462340
2770.56+39720712+39831596+39782304+39721560+39787604+39976596+40214788+40438544
2765.42+40653636+40952448+41395560+41898492+42336748+42701836+43073752+43519272
2760.28+44028300+44447340+44582284+44516804+44623848+45050380+45465400+45603196
2755.14+45711384+46103576+46612784+46899188+47025476+47340368+48000568+48903128
2749.99+49877692+50697240+51120844+51193332+51316856+51810916+52520760+53067176
2744.85+53363612+53718360+54447588+55532752+56675408+57653924+58532296+59451240
2739.71+60334180+61001280+61562348+62410020+63711572+65132020+66210840+66874300
2734.57+67453528+68316320+69556912+70977016+72326712+73586360+74955384+76545608
2729.42+78219912+79807232+81313600+82812360+84274048+85661816+87107840+88838792
2724.28+90892168+93016504+94941112+96711552+98627088+100842512+103205264
2719.78+105527976+107828336+110195816+112629144+115120680+117713616+120371464
2715.28+122987128+125595784+128369096+131345944+134367744+137336656+140341104
2710.78+143495776+146807232+150194432+153564336+156925680+160448976+164275728
2706.28+168252768+172069808+175655648+179171568+182685584+186185440+189868704
2701.78+193979296+198333040+202445440+206202704+210014000+214241264+218802976
2697.28+223389632+227779104+231918320+235913168+239960352+244185888+248601776
2692.78+253202416+257901488+262382736+266353616+270033600+274046144+278727424
2688.28+283809664+288859776+293742240+298540576+303294560+307980320+312619424
2683.78+317262016+321880256+326331680+330499296+334509312+338737056+343454848
2679.28+348517856+353506816+358146240+362465056+366660864+370964832+375530144
2674.78+380275904+384916352+389308512+393659808+398216704+402888288+407387520
2670.28+411651392+415917312+420418400+425156608+429985408+434796960+439560000
2665.78+444164288+448372896+452118240+455792544+459953344+464683648+469522432
2661.28+474076800+478410624+482760896+487213632+491767168+496420224+501102592
2656.78+505686144+510114240+514426336+518719264+523138464+527730240+532299008
2652.28+536597088+540663424+544757184+549047104+553569024+558329792+563193536
2647.78+567859520+572190912+576356864+580493376+584521280+588464384+592617472
2643.29+597183552+601960768+606542016+610732928+614731648+618933376+623553088
2638.79+628443584+633328064+638050752+642506560+646598656+650482816+654557504
2634.29+658995456+663553856+668010944+672404608+676714432+680774784+684680384
2629.79+688837440+693429120+698190976+702810240+707192832+711314688+715168896
2625.29+718917760+722817920+726958400+731212160+735398464+739386944+743181376
2620.79+747019712+751238016+755900480+760651328+765037312+768946112+772683904
2616.29+776657792+780973056+785332096+789356352+792996736+796545088+800268864
2611.79+804163648+808058432+811813248+815408768+818953472+822620608+826476160
2607.29+830406144+834272384+838040320+841683584+845131200+848434240+851822720
2602.79+855435392+859138112+862733120+866190080+869565056+872844288+875995200
2598.29+879054656+882097856+885182464+888293632+891309952+894105152+896718848
2593.79+899328256+902067328+905003648+908185344+911510336+914681920+917522368
2589.29+920150976+922690048+925075008+927365440+929839232+932562176+935267904
2584.79+937841920+940476864+943192768+945712384+947905664+949886016+951691456
2580.29+953365952+955251584+957638528+960260032+962660736+964854784+967130176
2575.79+969434944+971464512+973151744+974672640+976137856+977603584+979226688
2571.29+981159552+983333440+985448768+987167232+988398080+989411200+990565760
2566.79+991933312+993361664+994805376+996332096+997868416+999243136+1000431168
2562.29+1001544256+1002653248+1003780544+1005005312+1006412928+1007977408
2558.43+1009511040+1010739136+1011556416+1012237632+1013216192+1014555072
2554.58+1015895872+1016984384+1017965248+1019044928+1020136000+1021006144
2550.72+1021619712+1022219008+1023093184+1024284416+1025539456+1026597056
2546.86+1027434496+1028159360+1028820160+1029469376+1030214208+1031040448
2543.00+1031820224+1032607104+1033627968+1034830848+1035824192+1036429120
2539.15+1036926528+1037571968+1038252352+1038824320+1039450240+1040356352
2535.29+1041504384+1042683904+1043743744+1044640320+1045396352+1046099712
2531.43+1046825856+1047533312+1048132544+1048642048+1049189120+1049884032
2527.58+1050768256+1051853120+1053091840+1054307712+1055236928+1055752768
2523.72+1056048064+1056508416+1057368768+1058528448+1059715840+1060712896
2519.86+1061398464+1061785344+1062119424+1062724480+1063602624+1064388288
2516.01+1064833536+1065132608+1065628608+1066426880+1067383552+1068261568
2512.15+1068836800+1069098176+1069347520+1069872896+1070579456+1071156096
2508.29+1071468288+1071560576+1071459200+1071236288+1071085568+1071154880
2504.44+1071439296+1071907712+1072521792+1073114816+1073498944+1073673728
2500.58+1073741824+1073700800+1073512512+1073238208+1072951872+1072665984
2496.72+1072404800+1072191488+1071963968+1071677504+1071413952+1071191616
2492.86+1070808896+1070094400+1069194624+1068430080+1067935808+1067557248
2489.01+1067032960+1066253632+1065363520+1064552640+1063789440+1062893504
2485.15+1061833216+1060705216+1059493056+1058107392+1056592320+1055059712
2481.29+1053514368+1051957696+1050508352+1049231616+1048034752+1046845120
2477.44+1045687872+1044520576+1043205952+1041676160+1039958976+1038074048
2473.58+1036092736+1034192000+1032448512+1030678912+1028674304+1026495488
2469.72+1024387392+1022439488+1020494464+1018383936+1016161024+1014041600
2465.87+1012150272+1010419136+1008700224+1006875584+1004850432+1002617856
2462.01+1000351232+998260800+996343424+994422912+992440256+990487424+988542848
2457.51+986406144+983980992+981477568+979218944+977287296+975431872+973346880
2453.01+971010432+968679872+966546240+964554880+962627520+960861696+959342912
2448.51+957897472+956272896+954458688+952631168+950852608+949061312+947304960
2444.01+945727296+944309760+942843904+941214784+939543680+937990144+936527744
2439.51+934988032+933309120+931679936+930374080+929402432+928453184+927279488
2435.01+926000384+924876544+923951680+923110208+922314688+921548160+920665216
2430.51+919527552+918206976+916911168+915779392+914826496+913980032+913155776
2426.01+912379264+911776576+911339520+910836352+910090880+909198272+908330560
2421.51+907493248+906638016+905840960+905211776+904734848+904318592+903911040
2417.01+903500864+903044480+902430912+901545984+900433024+899359104+898589952
2412.51+898078784+897526784+896773888+895954624+895251712+894683520+894174912
2408.01+893657984+893044800+892249088+891295936+890285440+889247744+888167552
2403.51+887106560+886121728+885104960+883900288+882571328+881359936+880401792
2399.01+879601216+878763008+877735488+876520448+875281088+874141504+872953344
2394.51+871468480+869740096+868105600+866755200+865575104+864402560+863155840
2390.01+861732992+860091008+858404800+856887360+855480512+853950976+852207488
2385.51+850296000+848189440+845886336+843635712+841775936+840336000+838989120
2381.01+837396736+835444160+833204672+830842816+828557056+826452480+824423424
2376.51+822240960+819791488+817193472+814671936+812340288+810106496+807752768
2372.01+805112128+802226624+799364032+796786880+794447744+792031424+789378752
2367.51+786689216+784149056+781591360+778804160+775962816+773380672+770989760
2363.01+768452864+765708416+763032064+760607616+758357376+756155968+753955456
2358.51+751738688+749519488+747340608+745205184+743086208+741022784+739086784
2354.02+737279552+735579072+734003520+732499712+730900544+729113408+727213696
2349.52+725213632+722917120+720174784+717137728+714091264+711138752+708195776
2345.02+705226624+702312128+699488448+696688000+693895168+691239808+688801536
2340.52+686410048+683791616+680922688+678095616+675578240+673325568+671106240
2336.02+668809536+666482560+664131200+661668160+659078272+656470720+653933312
2331.52+651489472+649180224+647008896+644832320+642515456+640148800+637920832
2327.02+635859968+633903296+632030784+630148224+628065920+625807168+623647552
2322.52+621680768+619656448+617392384+614990080+612548800+610043712+607553536
2318.02+605269440+603223872+601283712+599345664+597332928+595122752+592724864
2313.52+590379328+588282880+586351360+584356992+582181376+579861888+577514112
2309.02+575218496+572943872+570612672+568258048+565999232+563861376+561749760
2304.52+559598144+557420608+555233920+553033088+550831424+548641856+546423296
2300.02+544108928+541694208+539269696+536908096+534563840+532170240+529819968
2295.52+527652736+525592800+523442848+521218688+519092224+517018496+514781088
2291.02+512399296+510119712+508006240+505885248+503689120+501531584+499462144
2286.52+497390304+495259008+493111456+490984416+488815456+486478848+483955392
2282.02+481461024+479263136+477340352+475408928+473298464+471094656+468912576
2277.52+466786880+464766240+462869632+460977920+458975392+456944320+455040096
2273.02+453261664+451470272+449539968+447446656+445310016+443333408+441566784
2268.52+439791968+437791104+435605472+433396832+431213600+429049344+426972672
2264.02+425029056+423151008+421278016+419435456+417616928+415721120+413703744
2259.52+411659424+409697920+407847360+406117984+404520672+402947360+401176832
2255.02+399108512+396911040+394860288+393069600+391446496+389811200+388011424
2250.52+385993568+383848960+381755232+379860160+378221408+376792224+375385408
2246.02+373754848+371831200+369810208+367943488+366306400+364808992+363300768
2241.52+361647168+359820896+357944832+356145536+354418816+352713984+351013856
2237.02+349246880+347322368+345359104+343647136+342277920+341005088+339580064
2232.52+338001856+336387104+334788576+333203424+331607520+329993600+328418464
2228.02+326941472+325479360+323872992+322134976+320449312+318912224+317456000
2223.52+316023840+314632608+313253920+311804512+310276992+308747296+307258240
2219.02+305764640+304214048+302621536+301057856+299580768+298208128+296938272
2214.52+295721920+294440384+293026112+291595232+290297888+289069568+287715008
2210.02+286221728+284764928+283396544+281965472+280391936+278853472+277601664
2205.52+276629568+275598816+274210336+272604416+271179072+269999808+268730816
2201.02+267242096+265856544+264806672+263858160+262691568+261291856+259807424
2196.52+258357136+257071376+256042016+255153040+254197440+253115056+251955312
2192.02+250749200+249578016+248560016+247630608+246549520+245237200+243897696
2187.52+242715856+241622656+240439600+239133856+237850288+236711168+235643728
2183.02+234481680+233253488+232191488+231406464+230725680+229924784+228933664
2178.52+227763328+226450288+225122496+223935104+222887232+221858144+220817712
2174.02+219856080+219013120+218192416+217241440+216094864+214858368+213719232
2169.53+212744208+211817232+210828416+209816096+208878560+208052832+207328496
2165.03+206674768+205996656+205158400+204095392+202867392+201620448+200508192
2160.53+199604208+198852608+198152496+197472560+196803600+196033888+195021264
2156.03+193816336+192673712+191775360+191034544+190239904+189318320+188362768
2151.53+187468432+186663696+185981200+185464864+185060192+184590528+183900048
2147.03+182993488+182037616+181238144+180670640+180200304+179602848+178768544
2142.53+177759920+176714608+175776576+175034224+174403872+173692080+172868640
2138.03+172128672+171574608+171049376+170405200+169699472+168976400+168133440
2133.53+167184704+166385696+165911152+165602400+165187408+164577216+163828512
2129.03+162987280+162102912+161298256+160702464+160309856+159928864+159330528
2124.53+158488352+157622368+156935888+156379248+155761824+155020528+154268560
2120.03+153622928+153087280+152601232+152136624+151718928+151340224+150902800
2115.53+150334112+149728112+149243520+148868976+148429840+147848720+147232672
2111.03+146697200+146229024+145745312+145186224+144529296+143806448+143112528
2106.53+142550768+142158176+141872512+141550224+141041024+140318928+139541072
2102.03+138905408+138427152+137933056+137309840+136698432+136334960+136194784
2097.53+135934256+135303920+134497696+133917632+133667416+133505264+133243096
2093.03+132891776+132420904+131710760+130840616+130122728+129698176+129352880
2088.53+128869000+128353456+128038160+127918456+127777320+127466784+127024536
2084.03+126534024+126002224+125391416+124708456+124018576+123413128+123001448
2079.53+122850128+122834296+122620264+121996552+121206248+120732376+120712544
2075.03+120749952+120397816+119655216+118888680+118372856+118043592+117709480
2070.53+117362784+117154352+117070760+116845472+116291960+115565672+114953808
2066.03+114553128+114285440+114071464+113830736+113461568+112954144+112420096
2061.53+111952944+111583000+111374696+111379192+111459528+111334696+110880168
2057.03+110249904+109675880+109227472+108828712+108422784+108058856+107789176
2052.53+107555936+107215248+106679016+106009192+105375736+104941256+104725920
2048.03+104585816+104373120+104113408+103921184+103763088+103441472+102843424
2043.53+102077392+101351688+100836304+100622768+100658936+100724192+100625632
2039.03+100376096+100044832+99547416+98829848+98154112+97860696+97874720
2034.53+97767504+97318664+96749256+96393296+96364912+96528608+96620632+96430632
2029.39+96008144+95621080+95432160+95358408+95271648+95129240+94870600+94434944
2024.25+93924952+93527256+93251256+92932568+92498952+92066664+91784280+91669592
2019.10+91566296+91243920+90646080+90025048+89704176+89725168+89810200+89646568
2013.96+89144592+88500072+88041360+87927128+87994432+87991968+87880944+87769080
2008.82+87649680+87388304+86931824+86405984+85993160+85770736+85637760+85416256
2003.68+85060728+84723136+84561264+84553992+84549176+84412592+84086336+83601048
1998.53+83074360+82637344+82341784+82165464+82064376+81971792+81788112+81414640
1993.39+80817056+80096632+79488736+79186392+79133040+79113368+79028160+78934128
1988.25+78859384+78804936+78870944+79113608+79315736+79186520+78761296+78357056
1983.11+78189688+78251144+78461152+78689152+78718024+78402784+77815304+77149032
1977.96+76579608+76240392+76174472+76274400+76366224+76366000+76299696+76252912
1972.82+76303008+76379608+76217440+75656256+74916376+74343424+73916912+73304168
1967.68+72417008+71667432+71571408+72205176+73096896+73662496+73707864+73469160
1962.54+73216032+73011096+72841968+72732784+72636832+72440296+72165856+71999120
1957.39+72038816+72137312+72023752+71562472+70905272+70400072+70279016+70445720
1952.25+70608648+70566536+70319648+70029600+69897432+69975384+70070960+69929368
1947.11+69483016+68899160+68442384+68265104+68137816+67529416+66271784+65059384
1941.97+64858832+65808300+67113304+68005416+68387984+68529096+68550488+68391400
1936.82+68068984+67759952+67620968+67634176+67692472+67777552+67923504+68039888
1931.68+67965072+67702624+67420768+67213384+67034984+66868068+66758472+66683704
1926.54+66597580+66590360+66696772+66543700+65637960+64169316+63084896+63093192
1921.40+63958244+64927912+65279116+64368100+62106380+59771156+59307240+61103616
1916.25+63447000+64730800+65073060+65319776+65631240+65741628+65663712+65464084
1911.11+65017148+64409592+64003748+63918104+63966788+64118072+64468160+64830636
1905.97+64863592+64556884+64240948+64193724+64416540+64689304+64755320+64567132
1900.83+64341004+64280116+64314276+64239604+64010584+63775980+63644600+63518348
1895.68+63254416+62952716+62874672+63055144+63271980+63415048+63462980+63077828
1890.54+61884920+60334428+59600600+60266476+61672384+62832844+63410656+63573244
1885.40+63491756+63280396+63106608+63092708+63220632+63382972+63467616+63423340
1880.26+63297592+63187344+63154656+63224780+63399184+63628744+63825516+63926896
1875.11+63916400+63797452+63614964+63505308+63610328+63759392+63215516+61141132
1869.97+57716436+54565244+53471868+54672588+56956464+59185404+60971928+62181224
1864.83+62691780+62745180+62872476+63271740+63650220+63751220+63703156+63721936
1859.68+63756340+63631792+63403460+63309788+63429192+63605200+63687784+63663880
1854.54+63622644+63712912+64000708+64274988+64252904+64001312+63825756+63753176
1849.40+63504696+62952104+62351384+62141120+62308728+61598052+58129860+52111776
1844.26+47373516+48021620+53390920+58986540+61939408+62833948+63142344+63344052
1839.11+63415168+63303328+62810048+62064092+61767684+62282760+63058436+63406136
1833.97+63258804+63005276+62920400+62581192+60899440+57566848+54381292+53862676
1828.83+56397796+60032192+62683976+63201976+61312804+58229856+56492108+57581680
1823.69+60301428+62555712+63642164+64069516+64312204+64500500+64592152+64387620
1818.54+63807336+63174292+62878936+62954180+63217708+63520912+63731220+63786232
1813.40+63752692+63550188+62844432+61589644+60461932+60327852+61272840+62475380
1808.26+63131976+63291124+63525432+63993508+64312944+64280604+64003384+63338812
1803.12+62025456+60422840+59227520+58445672+57621816+57018952+57497656+59140012
1797.97+60879348+61605484+61181220+60479228+60402988+60376320+58305520+53237292
1792.83+47715692+45813176+48524792+53122016+57021624+59788684+61654960+62579852
1787.69+62894672+62993316+62345296+60422476+58319880+57817384+59073192+60694080
1782.55+61564176+61390052+60332476+59199644+59075748+60028176+61135172+61874684
1777.40+62198288+61721128+60487636+59616060+59091936+56205532+48974564+40302184
1772.26+36107704+39008812+46152788+52964164+56319408+55459140+52599000+51732348
1767.12+54653644+59009784+61633512+62124788+61945616+61366656+58999320+54424148
1761.98+50152092+49784172+53895572+59205000+62370412+62737500+61082296+58148836
1756.83+55571144+55676720+58541056+61564420+63061492+63322716+61674948+56471452
1751.69+49343056+45531276+47481924+51684692+54165188+54987968+56098352+58051884
1746.55+60174784+61839704+62597168+62278980+61443784+61183660+62218648+63755980
1741.41+63336012+59258432+53739112+51703124+55013112+60409084+64272672+65511460
1736.26+62987832+54470900+40595396+27827570+24399510+32315268+45596672+56542432
1731.12+61471200+61662392+60839636+61563320+63622524+65536128+66550420+66899468
1725.98+66975956+66821392+66348492+65780216+65611952+66117516+67044628+67807872
1720.84+67735016+65878888+60769476+51396020+39807736+32192682+33840500+42130160
1715.69+49426384+52606520+54943880+59421048+64609968+68113736+69733960+70042080
1710.55+69336208+68701640+69266608+70163352+69474688+66873568+63804652+61832268
1705.41+61648988+62921252+65008596+67925216+70734496+68943680+57575484+39146164
1700.26+26217296+30230746+47811900+65444908+72766968+67250656+54298124+45990648
1695.12+52079160+68919824+84890072+93940064+98039304+100749296+102917080
1690.62+104483824+106574672+109899616+113652336+117400624+121317152+123083024
1686.12+118008216+105148520+92100064+89996992+101598752+119432000+135468608
1681.62+146471440+152824128+156729920+160646224+165552848+170792608+175173872
1677.12+177043184+174686000+169302896+166832048+172888496+185279904+196142000
1672.62+201054368+202170032+203144992+204115552+203644736+203459888+207683424
1668.12+217287712+228516448+237466176+243550384+248133008+251619328+253011328
1663.62+252220128+251945264+255885024+264451200+274095008+281685824+287315008
1659.12+292328064+297057024+301425696+305612768+308981696+309765184+305898368
1654.62+295368544+278130208+261041184+258029200+276343456+305470144+329591360
1650.12+342276576+345733184+344369568+341211360+337383872+333282528+330973344
1645.63+334454368+344778176+356785792+364446624+367054048+367743776+368367936
1641.13+368594592+368347168+367774240+366019520+362548608+357921504+351283072
1636.63+340218272+326257568+317487872+320133312+329558432+336271872+336524416
1632.13+332758496+328005568+323051040+317335936+310007744+300682912+290468992
1627.63+281491520+274839040+269622944+263764368+255115680+243186288+230776224
1623.13+222205136+218641376+217051232+214248896+209732064+204640576+199374800
1618.63+191994128+179378848+162162384+148337280+146840192+155785344+164845520
1614.13+168041120+167050000+165108032+163040368+160868496+159054688+157479120
1609.63+155723088+154182496+153298608+152641936+151844304+151225216+150898224
1605.13+150509328+149963056+149350800+148516160+147530816+146902128+146768048
1600.63+146743488+146721616+146823760+146794256+146430864+146096496+145945440
1596.13+145465600+144516976+143799840+143759584+144077888+144507696+145131152
1591.63+145802272+146287776+146725552+147272512+147848848+148608336+149839344
1587.13+151300704+152561184+153728640+154927040+155734864+156045904+156497376
1582.63+157373616+158327520+159389296+160756016+161941504+162638064+162980480
1578.13+161145888+153536128+140772528+131588680+135088560+148759856+162078400
1573.63+169306112+172216304+174001696+174478304+171418608+164941536+159281120
1569.13+159316592+165297824+172874992+177979600+179518912+178435696+176471584
1564.63+175471584+176254528+178033728+178880112+175795968+165523808+147986576
1560.13+128851592+115629280+111040336+114212112+125254240+141851712+155792736
1555.63+159657392+154570192+148951120+149752064+156072240+162244944+164174080
1551.13+161776928+157924128+155809600+156438048+158439488+159904256+159439728
1546.63+155984960+149618288+143002848+139601136+138779712+135514288+127101736
1542.13+117154352+110003512+103638376+94005952+84710808+85454616+98755720
1537.63+115583440+126655792+130062432+128107864+122456904+114315728+107121112
1533.13+105273952+109245696+114872056+118443336+119662240+119315328+117204360
1528.63+113702880+110642952+108734864+106399416+102910232+100452144+101106040
1524.13+103201536+102521952+96387472+86199680+77245088+75586920+82943904
1519.63+94396288+102417816+103132216+99089992+96430008+98508032+103353360
1515.13+107818240+110756504+111556880+109579992+106279520+104581088+104925944
1510.63+104879480+102948944+99397496+93509928+83611016+70555272+59323672
1506.13+56187304+63859668+78905232+94157696+104038584+107699880+107996744
1501.63+108139456+108837208+108219304+104969032+101168320+99922072+100126464
1497.13+97801008+93480328+93323072+100368016+109779384+115951000+118333984
1492.63+118544904+116583968+112337088+108182376+107437592+110713768+115321752
1488.13+118411104+119959528+122312032+126867232+132261152+136502288+139441456
1483.63+142036848+144437808+146146736+147415008+149202144+151969936+155389760
1479.13+159003232+162196608+163821344+163352304+162595616+164280880+168020816
1474.63+169966800+167726896+163645312+162377520+166602960+175708944+186841888
1470.13+196386688+202192144+205013120+206988272+208946560+209896720+208528368
1465.63+204971424+201982064+203410560+209637248+216493280+220544896+222448688
1461.14+223696944+223561392+221220640+217275824+211164416+201358624+190855024
1456.64+188090496+197441904+212799312+225425840+232304256+235015344+235559664
1452.14+235168160+235022128+235931520+237308656+237444368+235325136+232148864
1447.64+230562704+231953376+234988624+237339152+238115088+238053808+237931504
1443.14+237665968+236984336+236090832+235184912+234066880+232725872+231145872
1438.64+227688736+219701136+207922304+198832128+198689760+205413888+211386768
1434.14+212519072+210272352+207267760+204300592+201036960+197163296+192877616
1429.64+189333792+187699440+187272496+186155104+183854704+181273872+178460528
1425.14+174679936+170419888+167090896+165112928+163930400+162671408+159235920
1420.64+151103712+139468944+130668760+130029120+135427392+140860816+143579744
1416.14+144624096+145243536+145512656+145332384+144803392+143942736+142923856
1411.64+142133040+141617856+141117008+140734352+140886672+141584112+142297152
1407.14+142397024+141374512+139175168+136850064+136117984+137455168+139313056
1402.64+140036704+139594544+138519632+136292336+132361168+128057064+125676088
1398.14+125690064+126344664+125736512+123007864+118402200+113653832+111446664
1393.64+112803952+115687880+117378696+117125536+115811232+114243512+112404352
1389.14+109584360+105180536+100163120+97168552+97762904+100375472+102364584
1384.64+102909480+102711672+102255008+101624984+101071232+100685408+100185856
1380.14+99475504+98794824+98292520+98041896+98163800+98374448+97920648+96453944
1375.00+94535920+93124216+93025920+94613240+97386920+100108200+101897056
1370.50+102796640+103118536+103036288+102988488+103448184+104098968+104207784
1366.00+103702472+102878504+101451152+99122280+96702120+95408864+95358168
1361.50+95857872+96712552+98113024+99695744+100733392+100976016+100657816
1357.00+99999600+99193808+98584128+98454024+98731632+99036224+98933288+98224872
1351.86+97145600+96174800+95598640+95363992+95334368+95468736+95741328+96046336
1346.71+96244728+96265936+96192648+96198488+96338120+96505416+96583912+96416368
1341.57+95671544+94176648+92439776+91406096+91522872+92364160+93201104+93624728
1336.43+93655936+93597240+93773720+94192384+94477688+94267208+93632160+93035944
1331.28+92902728+93241096+93693960+93954920+94017352+93966808+93752656+93337184
1326.14+92885152+92629400+92686224+93019352+93450864+93795640+94070496+94313904
1321.00+94183952+93245680+91751872+90513648+89878200+89493560+89149776+89109880
1315.86+89474904+89886224+89994632+89776712+89389504+89059088+89008064+89269152
1310.71+89671904+90042232+90228784+90055216+89559808+89117776+89026960+89135208
1305.57+89152504+89145328+89432880+90088088+90768128+91060984+90896992+90557304
1300.43+90325088+90263648+90344880+90568784+90868304+91130872+91380480+91731216
1295.29+92168128+92590280+92992120+93385856+93689128+93905632+94219624+94697744
1290.14+95127760+95352336+95526616+95878584+96416744+97004424+97541520+98004176
1285.00+98428944+98912664+99537600+100273832+101003848+101645864+102237088
1280.50+102883480+103626928+104398160+105153376+105974312+106943440+107994624
1276.00+109004680+109980176+110996592+111992576+112801832+113423776+114120264
1271.50+115149344+116489520+117915328+119289104+120681024+122229608+123981448
1267.00+125892336+127876872+129827464+131635032+133277088+134865504+136566432
1262.50+138470096+140579008+142901648+145456704+148162752+150866224+153554768
1258.00+156412864+159559840+162839392+165992608+168984096+172049568+175442016
1253.50+179182160+183032368+186726896+190249264+193851504+197736080+201783520
1249.00+205689200+209346272+212963456+216826928+221071648+225712672+230725152
1244.50+235970784+241170832+246093920+250764752+255444080+260432976+265906544
1240.00+271829056+277978112+284081920+289977888+295692448+301412096+307315360
1235.50+313336000+319232480+325027840+331141568+337830080+344727840+351257568
1231.00+357291712+363134912+369101824+375357824+381901920+388451712+394573984
1226.50+400110624+405363456+410804800+416705664+422968768+429231072+435170208
1222.01+440712000+445870464+450595776+454980352+459325664+463732416+467924352
1217.51+471723872+475355200+479046048+482687840+486048128+488989024+491426240
1213.01+493417632+495227616+496979744+498402944+499225184+499591136+499794880
1208.51+499848064+499565792+498836064+497636416+496024800+494166880+492179616
1204.01+489952768+487311424+484255648+480851616+477038304+472762592+468196160
1199.51+463627936+459176736+454664416+449761152+444292000+438425888+432476576
1195.01+426551616+420547808+414452768+408379616+402322240+396166592+389949248
1190.51+383870752+378041088+372423872+366956672+361561088+356132640+350663904
1186.01+345242784+339866272+334477120+329228832+324428320+320197088+316411968
1181.51+312901408+309477792+305928544+302210752+298501472+294939840+291573888
1177.01+288561088+286052224+283911936+281905024+279973248+277995904+275629408
1172.51+272824544+270099168+267900128+266111904+264503472+263174464+262265040
1168.01+261654304+261088464+260300560+259092848+257632000+256449872+255847888
1163.51+255578448+255285104+254884704+254417952+253952640+253670144+253639520
1159.01+253553200+253094256+252415344+251917104+251758800+251905280+252365840
1154.51+253056272+253665456+253979312+254167456+254580208+255418144+256736272
1150.01+258540688+260701456+262919360+264962752+266869968+268806976+270849280
1145.51+273020960+275424256+278177632+281304704+284746400+288358848+291928896
1141.01+295388576+298949856+302813760+306907456+311150688+315694560+320568512
1136.51+325456000+330216160+335252320+340938752+347042272+353119424+359156544
1132.01+365422816+371993248+378767136+385757440+393067616+400687488+408497024
1127.51+416475360+424767968+433473888+442429600+451378272+460372960+469781984
1123.01+479759232+489924480+499762016+509299232+519197888+530057920+541645952
1118.51+553027904+563619200+573831744+584372736+595256960+606011328+616577472
1114.01+627295296+638106624+648478656+658233408+667878592+677943424+688299456
1109.51+698293760+707412544+715783168+724080640+732877312+742037504+750854208
1105.01+758792512+765953024+772808832+779706816+786687488+793608768+800305920
1100.51+806695232+812780480+818594432+824160064+829510464+834635712+839412864
1096.01+843759360+847881088+852142144+856652800+861188160+865527552+869604992
1091.51+873428096+877155776+881144640+885512256+889774400+893326848+896183744
1087.01+898841920+901567360+904208384+906574912+908654144+910483392+912024960
1082.51+913139840+913703232+913824704+913770944+913480448+912426432+910208128
1078.01+907025856+903329792+899283456+894827712+890055168+885228736+880397888
1073.51+875094336+868611712+860798592+852345792+843945152+835441536+826287808
1069.01+816413440+805977408+794731904+782463168+769707456+757176704+744738240
1064.51+731729920+718046720+704240832+690708992+677324928+663814720+650102912
1060.01+636308096+622605504+609144448+596067584+583500736+571401344+559453056
1055.51+547354688+535242560+523604832+512674240+502060480+491192256+480069440
1051.01+469334528+459422784+449906560+440070112+429948256+420228800+411232096
1046.51+402651072+394343488+386644960+379666976+372857536+365586592+357884992
1042.01+350390816+343679072+337719584+332019456+326253984+320581408+315245888
1037.52+310187584+305262016+300498112+295872768+291178016+286384352+281839680
1033.02+277886784+274489120+271337824+268087136+264509664+260703792+257155312
1028.52+254349472+252285072+250473984+248385264+245826864+243027760+240496816
1024.02+238733120+237865600+237470704+236844272+235652272+234299952+233451472
1019.52+233247616+233274480+233265696+233409072+233844752+234269488+234333984
1015.02+234219504+234526608+235617264+237264864+239012176+240682080+242378464
1010.52+244137664+245944672+248077584+251018576+254846208+259083280+263366832
1006.02+267985024+273511680+280113792+287469728+295216928+303287008+311868384
1001.52+321152224+331076064+341335104+351740640+362496672+373940480+386065888
997.02+398508000+410967712+423480192+436237664+449259008+462268928+474930336
992.52+487153152+499002560+510190016+519923232+527478720+532696736+535731744
988.02+536596192+535177376+531383232+525111040+516456608+506077856+494876608
983.52+483182496+470698848+457324352+443538816+429871680+416454208+403230368
979.02+390205248+377389056+364810112+352664576+341191296+330332672+319786784
974.52+309480032+299747712+290900384+282779168+274961184+267286272+259990624
970.02+253394224+247598880+242403968+237428768+232440912+227633088+223397296
965.52+219856480+216807024+214022784+211335248+208530224+205541504+202692304
961.02+200441696+198901088+197769760+196680704+195472032+194262928+193356304
956.52+192948160+192861600+192641712+191960688+190870912+189707120+188833744
952.02+188463856+188589072+188983696+189343552+189548000+189727904+189956080
947.52+190000672+189605472+188935760+188459312+188420192+188651712+188849072
943.02+188834656+188639744+188471760+188534256+188812832+189090512+189161472
938.52+189002784+188805552+188843360+189167424+189511344+189690448+189922656
934.02+190470704+191219648+191944672+192731376+193675136+194403008+194398560
929.52+193774000+193296000+193517152+194148800+194571472+194789248+195415056
925.02+196661664+197901312+198519760+198699552+198953840+199361488+199692016
920.52+199931632+200288624+200857616+201527856+202132368+202612512+203102688
916.02+203761504+204502512+205054000+205309328+205442576+205734160+206411520
911.52+207511840+208713184+209515008+209772112+209856528+210165168+210695344
907.02+211200544+211571840+211917664+212368368+212889664+213298608+213484624
902.52+213562512+213711984+213897792+213915680+213751856+213745936+214241776
898.02+215133664+215951520+216417616+216673904+216873568+216863824+216513424
893.52+216079440+215910032+215955760+215877360+215527680+215079312+214746848
889.02+214584544+214527680+214481728+214366176+214163344+213937360+213720272
884.52+213409632+212893216+212255152+211718896+211395456+211221568+211115536
880.02+211024752+210894784+210722800+210503648+210022144+209027024+207772368
875.52+206988688+207024480+207356816+207166784+206108592+204432736+202744800
871.02+201684512+201440880+201506128+201213744+200527152+200006624+200039440
866.52+200389792+200540368+200257136+199658816+198849104+197808256+196695552
862.02+195921088+195650912+195553376+195298368+195026336+195093344+195617408
857.52+196398528+197030336+197106016+196502128+195388704+194013952+192896096
853.03+192992432+194681728+196655008+197102368+196078224+195309600+195604768
848.53+196125824+196376896+197006976+198113984+198612736+198084080+197755776
844.03+198598736+199702080+199734720+199076480+199229824+200646128+202381184
839.53+203584272+204119072+203951744+203091568+202128320+201881104+202261872
835.03+202147920+200610688+197867248+195037024+193231808+192726080+192788560
830.53+192338896+191030128+189733776+189677744+190871552+191633648+190228464
826.03+187062336+184553952+184438560+185909472+186882672+186291472+184373216
821.53+181703024+179161216+178151344+179291696+181148464+181531104+179873552
817.03+177342976+174991392+173001952+171455440+170526608+169972704+169360160
812.53+168762464+168458032+168230032+167798240+167608240+168106448+168479504
808.03+167331232+164794272+162711536+162310592+162825920+162958928+162587024
803.53+162387376+162623936+162954688+162807456+161883440+160909488
##END=
