##TITLE=octarelline 6 front
##JCAMP-DX=4.24
##DATA TYPE=INFRARED SPECTRUM
##DATE=1/2/2005
##TIME=0:40:25
##SAMPLING PROCEDURE=film
##ORIGIN=Vincent
##DATA PROCESSING=no operation
##XUNITS=1/CM
##YUNITS=ABSORBANCE
##RESOLUTION=2
##FIRSTX=4000.283
##LASTX=800.31372
##DELTAX=-0.64282227
##MAXY=0.18627641
##MINY=-0.0026031453
##XFACTOR=1
##YFACTOR=1.7348342e-010
##NPOINTS=4979
##FIRSTY=0.019389404
##XYDATA=(X++(Y..Y))
4000.28+111765169+111865504+112049304+112035744+111529904+110688984+110157544
3995.78+110360248+110971288+111327720+111219456+110962248+110822648+110679320
3991.28+110301152+109750616+109416368+109684968+110488904+111205728+111208696
3986.78+110520544+109683872+109099800+108890184+109175864+109869864+110383320
3982.28+110257176+109948448+110249840+111078128+111593240+111368600+110746696
3977.78+110156288+109738280+109585352+109814072+110314248+110722824+110772904
3973.28+110554400+110347456+110242992+110064920+109741104+109536248+109735168
3968.78+110257960+110769776+111030864+110950392+110472360+109713040+109117888
3964.28+109129584+109578032+109754352+109342960+108926488+109208128+110033112
3959.79+110607888+110441016+109694336+108928528+108724512+109190520+109691512
3955.29+109510680+108722496+107986120+107723168+107899192+108179624+107979728
3950.79+106987560+105822192+105372080+105496744+105369760+104978064+105126816
3946.29+106085416+107198104+107654784+106911240+104874904+102392336+101069880
3941.79+101915480+104339856+106757720+107945616+107825360+107275032+107244984
3937.29+107935024+108802752+109253792+109140480+108576488+107403696+105230608
3932.79+102399496+100462640+100671568+102232864+103275560+103411000+103972912
3928.29+105762424+107846544+108668736+107502904+104866656+102087704+100340864
3923.79+99967680+100786976+102445040+103999520+104197224+102973448+101720912
3919.29+101299976+100751408+98810552+95997984+94453896+95768696+99284648
3914.79+102895104+105412232+107296688+109004112+110054312+110187000+109912280
3910.29+109527840+109044936+108932736+109289032+108893000+106635640+102678064
3905.79+97075632+89546640+81778728+76884520+75217776+74257544+73343784+74243872
3900.65+76562040+77465744+76906216+78691568+85030832+93462736+100248616
3896.15+104030312+105531608+105913104+105960888+105266256+101855648+94355352
3891.65+85292368+80504080+83463112+91487432+99280768+104009472+104636224
3887.15+99288840+87696048+75308960+70329312+75342632+85271672+93943088+98820968
3882.00+99485856+95762648+89354568+84836968+86065792+92083352+98702840
3877.50+103367624+106178056+106903472+104089888+97902680+91680912+89402040
3873.00+92002400+95928680+94914304+84841288+68744520+56110628+55036432+65324316
3867.86+80150464+91970664+95861720+91057064+82069040+76406184+78200888+84418392
3862.72+89102536+90329120+91109048+94302520+99211216+103461552+105465928
3858.22+104752760+102461824+100425984+96001552+80396536+48772564+11422007
3853.72-12502612-15005153-3629507+14139133+37090060+62153664+82575744+95080752
3848.58+101779824+105384536+107099984+107945296+108182264+106385736+101671040
3844.08+95928224+92278264+91768824+92305192+91183176+88439296+85737952+81175080
3838.93+69693584+52281280+40129488+42868716+55915156+67717784+74588656+80763576
3833.79+87949176+92217576+90795256+86645584+85269048+89109336+95918768
3829.29+101762560+104421064+103834952+100934864+97550176+96222664+98016416
3824.79+101149728+102913752+101283352+94064552+80088376+63479292+53226864
3820.29+55062524+66234088+79907968+89906208+90367632+77941184+58274140+45577656
3815.15+49782732+66523524+84280408+96478840+103270440+106663504+107969144
3810.65+108344928+108762856+108559664+104595144+93671680+77791112+65835768
3806.15+66005044+76604344+88795008+96354472+97280544+89165616+71011704+50212300
3801.01+40440340+48279348+66704800+84287984+94920352+98132032+96202200+93024904
3795.87+92405992+95282248+99705864+103729184+106878080+109190520+110561112
3791.37+111159560+111370928+111284032+110870056+110386608+110039336+109604216
3786.87+108790128+107591536+106191904+104977440+104551128+105182072+106447384
3782.37+107715368+108261416+106796480+102404776+96653456+93192616+94187248
3777.87+98328952+102950448+106576624+108982448+110289448+110705360+110511352
3773.37+110032960+109497432+108221696+104315280+96805752+88344240+84102336
3768.87+86822768+93771896+99286656+99807424+96488760+93500056+93880496+97137384
3763.72+100890752+103797312+105897376+106696208+104440192+98330664+91097912
3759.22+87518024+89236280+92890784+94794184+95211568+96507056+99329656
3754.72+101494360+98001056+83224152+58440616+36386872+29456860+32945546
3750.23+32281914+25290288+24613762+38285360+59351396+75553768+77420648+59331696
3745.08+25786836-2949692-4974290+19183312+49861876+72353096+85219176+92064152
3739.94+95418968+96570952+95174680+89384264+79014624+67172536+57740260+53402764
3734.80+55616116+62606780+68196296+67406904+63206276+63775916+72593320+85039488
3729.65+95065880+100682432+102498672+100996552+97076568+93106808+91532624
3725.16+92913560+95775200+97782280+97284432+94924688+93524984+95105392+98394752
3720.01+100617656+100982560+100948856+101931800+104125816+106726408+108262824
3715.51+107756032+105777368+102476600+95178712+81805376+66966548+59640200
3711.01+62631728+69617184+74627688+78550680+84559128+92303336+99250648
3706.51+104203904+107329096+108984472+109610136+109143752+106425280+100839184
3702.01+94516200+91335616+93301960+98705008+104113216+107515840+109169952
3697.51+109988680+110273856+110151760+109905888+109410456+108399936+107028512
3693.01+104627520+99238224+91025184+83964696+79879632+73503112+59913740
3688.51+45129888+42134308+55202696+75250216+91664480+101265944+105998568
3684.01+108152968+109183808+109985096+110625984+110505592+108982120+105961664
3679.51+102590696+100741168+99911000+95111920+80854656+58560064+38492484
3675.01+32094950+42218836+62045368+81080896+90115032+84846376+69502272+55374004
3669.87+51522028+57586348+68194912+80245992+92569640+103003312+109715216
3665.37+113128744+114553040+114772344+114682672+115166032+116105192+116986864
3660.87+117744808+118165720+117975360+117577480+116281200+110905928+100031824
3656.37+88787128+84952888+90395800+100262760+109082336+113520912+111524592
3651.87+102906600+89885792+75420896+62467868+54724224+54669172+60554320
3647.37+68606808+77616568+88387976+100106040+110298648+117408416+121350352
3642.87+122681400+122612136+122733888+123706952+124905128+125534944+125388416
3638.37+124784672+124508640+125344496+127042448+128153320+127351232+124751272
3633.87+122025976+121301496+123210184+125346832+122985128+112273568+93891968
3629.37+74484120+63604948+66814528+81182320+98682192+113141552+123060504
3624.87+129578184+133854624+136340064+137233168+136711952+134475360+129535120
3620.38+121629176+113119536+108012920+108349608+112860400+119223216+125565696
3615.88+130032056+131477936+130628104+128667248+125730592+122859112+123073344
3611.38+127007592+129948592+127340264+121248088+117748256+119414928+124015968
3606.88+129275392+134987120+141029664+146255392+149586560+150911776+150861216
3602.38+150176816+149323296+148598480+148387584+148865296+149720720+150631104
3597.88+151475872+151742048+150720320+148797360+147528512+147991808+149876448
3593.38+152272560+154545280+156608320+158644752+160003408+158690848+153507824
3588.88+146397280+140857280+138413376+138634480+141663856+147818320+155304848
3584.38+161112304+164112944+165555552+166872000+168331856+169626320+170685488
3579.88+171706912+172677152+173235632+173255136+173203328+173530992+174141488
3575.38+174867664+175845328+177060736+178280416+179520384+180781520+181556288
3570.88+181375968+180233840+177767728+173233680+167156736+161766752+159065440
3566.38+159642672+163356576+169356000+175553232+179980496+182668400+184819456
3561.88+186686384+187681712+187986656+188602304+190010960+191673792+192864976
3557.38+193562912+194407312+195733392+196965920+197310576+196736544+195769696
3552.88+194824368+194351824+195075824+197300416+200329888+202965280+204258832
3548.38+203837280+202105696+200191536+199233376+199626352+201049168+202998608
3543.88+205208848+207696016+210364976+212673840+214072240+214702624+215154608
3539.38+215684768+216185424+216599280+216857840+216883728+217052608+218007168
3534.88+219714784+221438064+222796304+224025760+225146240+225778960+225895056
3530.38+226019968+226577248+227402976+227958400+227878656+227414048+227258688
3525.88+227802352+228738960+229599040+230309104+231089408+232101552+233366224
3521.38+234795856+236279312+237786944+239305920+240636000+241553776+242154464
3516.88+242796224+243747344+245091968+246757856+248369664+249386384+249661040
3512.38+249659056+249817808+249950064+249676368+249342560+249991440+252154816
3507.88+255046208+257338992+258446880+258620768+258250832+257730304+257649104
3503.38+258373104+259606720+260887344+262187296+263611632+264956496+265978800
3498.88+266756512+267499600+268341056+269379712+270575424+271673152+272579808
3494.38+273672928+275323840+277235680+278615392+279056736+279003328+279173504
3489.88+279642656+279906592+279890080+280286912+281570464+283297760+284858368
3485.38+286229408+287466976+288154144+287975488+287361216+287111520+287703968
3480.88+289115776+290968800+292810272+294471648+296009696+297223552+297665664
3476.38+297314432+296813472+296891712+297802112+299235104+300484128+300997664
3471.88+301101184+301821856+303683456+306040096+307846848+308679008+308811168
3467.38+308720672+308801216+309252128+310013696+310843392+311539136+312134912
3462.88+312867584+313856032+314884352+315672448+316262368+316850336+317372992
3458.38+317681440+317958752+318502016+319305376+320276128+321557632+323136352
3453.88+324449888+324927072+324691776+324353376+324419136+325208224+326795232
3449.38+328607456+329589856+329303072+328519328+328372160+329238624+330714720
3444.88+332274336+333570880+334437856+334941856+335315648+335712672+336172032
3440.38+336771104+337580000+338543776+339583744+340661792+341574240+341966592
3435.89+341797568+341594272+342013792+343216000+344701888+345721312+345935136
3431.39+345783104+345984096+346715616+347596992+348391552+349152960+349707616
3426.89+349679808+349107616+348523072+348404416+348939360+350110720+351548000
3422.39+352554272+352767584+352601664+352705408+353273440+354087680+354886720
3417.89+355476704+355804672+356083360+356536832+357061440+357453184+357887168
3413.39+358800192+360233824+361624576+362280160+361990464+361227584+360777024
3408.89+361023808+361592192+361896640+361980960+362474688+363696864+365201152
3404.39+366305536+366767136+366818240+366790080+366876832+367144992+367619936
3399.89+368276768+368878880+368956064+368244416+367148928+366499520+366804064
3395.39+367832736+368902400+369505088+369792672+370375808+371488320+372614496
3390.89+373243616+373540032+373816672+373912704+373697152+373556672+373784960
3386.39+374072064+374072768+373888928+373718944+373686176+374034944+374776608
3381.89+375363520+375454912+375552992+376151872+376901952+377319680+377585856
3377.39+378063040+378762976+379619104+380521024+381017312+380800864+380336352
3372.89+380278368+380634400+381160320+381960384+383029536+383871616+384177440
3368.39+384279008+384513376+384703744+384533952+383967808+383174400+382383840
3363.89+381843648+381726848+382133152+383052128+384126112+384712288+384592224
3359.39+384293984+384337152+384603008+384834912+385224384+385916480+386396992
3354.89+386113536+385464384+385509696+386688800+388354112+389602752+390146080
3350.39+390211136+390029760+389719392+389420064+389284928+389415488+389816672
3345.89+390259968+390289440+389688352+388895552+388662720+389263520+390297472
3341.39+391211232+391780896+392092672+392297408+392503008+392778976+393109568
3336.89+393340256+393368352+393342752+393396800+393285056+392779872+392318720
3332.39+392548736+393268992+393688768+393688608+393916160+394620768+395310368
3327.89+395628192+395751232+395934752+396242400+396635744+396904128+396833472
3323.39+396689024+397066848+398045760+399004896+399425312+399357888+399066400
3318.89+398735296+398599328+398865280+399380000+399679264+399494080+399097504
3314.39+399013152+399438272+400105152+400703680+401165472+401438368+401353408
3309.89+400925152+400497024+400448192+401004864+402268096+404010240+405563584
3305.39+406310432+406132800+405169408+403613664+402073088+401485472+402168192
3300.89+403402400+404259264+404410080+404066144+403663392+403725856+404587360
3296.39+406022816+407285536+407555136+406528992+404823616+403653056+403743936
3291.89+404701056+405630752+406043008+405955744+405581664+405253376+405241280
3287.39+405472000+405692736+405826656+405786944+405226016+404040032+402833408
3282.89+402302464+402406528+402617696+402662912+402599648+402500256+402445248
3278.39+402518144+402569344+402298240+401701856+401054304+400391456+399504416
3273.89+398486272+397763616+397548832+397650496+397799872+397748928+397226048
3269.39+396270912+395438432+395151552+395042336+394468256+393492512+392700768
3264.89+392198816+391486496+390347840+389204768+388441248+387894464+387283744
3260.39+386711104+386372768+386037440+385249952+384031680+382965216+382470592
3255.89+382323168+382036928+381412288+380511232+379427232+378328032+377490912
3251.40+376996160+376583168+376039168+375545920+375420256+375588704+375588352
3246.90+375052704+374060416+372981600+372122240+371546112+371123104+370643104
3242.40+369948864+369082976+368244640+367487232+366597664+365457248+364381088
3237.90+363820384+363777984+363802592+363578656+363218304+362907232+362562976
3233.40+362016704+361288960+360492032+359649312+358792576+358068224+357543584
3228.90+357096256+356708032+356638176+356960480+357178336+356707168+355627712
3224.40+354562272+353882976+353415360+352855552+352073152+351029504+349788928
3219.90+348612960+347753536+347240960+347092000+347482144+348308576+348861312
3215.40+348437824+347133120+345633408+344482304+343926432+343983968+344189568
3210.90+343801664+342793120+342098816+342355424+342988512+343040064+342312000
3206.40+341252736+340269152+339499712+338827296+337928544+336706944+335597824
3201.90+335033152+334808320+334446752+333936544+333645024+333665280+333597952
3197.40+332940832+331623488+330190976+329343936+329210144+329301728+329143808
3192.90+328591968+327654304+326547872+325820032+325886624+326481440+326939456
3188.40+326832832+326065600+324738848+323220416+322012704+321308576+320919456
3183.90+320623328+320262272+319672384+318849088+318040256+317421920+316901792
3179.40+316405312+316068896+315942112+315736800+315072832+313941792+312875360
3174.90+312490592+312753120+312899712+312311552+311188384+310101824+309280000
3170.40+308641888+308150752+307783680+307467200+307235424+307211424+307398016
3165.90+307666112+307826432+307578720+306750432+305743040+305217760+305183520
3161.40+304984288+304344928+303727648+303417696+302979104+301957024+300596064
3156.90+299567552+299247552+299431360+299643584+299623392+299501792+299452192
3152.40+299379872+299122944+298704608+298144320+297327040+296335712+295545568
3147.90+295110880+294718592+294118912+293495680+293086880+292824384+292585344
3143.40+292407264+292262016+291908096+291162400+290110976+288998368+288075616
3138.90+287499136+287158048+286647328+285689504+284571008+283875456+283772512
3134.40+283823328+283560128+282965440+282283904+281662624+281186624+281016320
3129.90+281165728+281229344+280682176+279508320+278330560+277787968+277914048
3125.40+278219808+278215008+277681760+276588864+275135136+273853248+273334208
3120.90+273680928+274418400+274944448+274890656+274214624+273224096+272436704
3116.40+272109984+272023616+271868448+271608320+271320960+270976224+270519200
3111.90+269936768+269227680+268545056+268211376+268316320+268502208+268404368
3107.40+268009744+267382544+266486304+265480016+264775200+264591600+264762272
3102.90+264967936+264883184+264302048+263463920+262993696+263138064+263365632
3098.40+263017552+262110768+261244576+260915616+261124640+261519168+261785536
3093.90+261834752+261640784+261140704+260414256+259711648+259142304+258665760
3089.40+258434640+258685616+259208352+259447680+259186688+258638960+257980192
3084.90+257296352+256814528+256635616+256484528+256155920+255873120+255783056
3080.40+255532032+254806208+253925808+253506736+253735760+254275632+254713184
3075.90+254826672+254540064+253871328+253020528+252313888+251858928+251387536
3071.40+250642304+249794720+249261280+249200960+249407472+249565888+249539712
3066.91+249521392+249804304+250175472+249885920+248647856+247219632+246476944
3062.41+246342288+246219776+245925424+245617792+245310832+244998800+244790656
3057.91+244618384+244241152+243697184+243241968+242887344+242461344+242006368
3053.41+241619504+241186848+240663264+240309792+240273008+240277424+239996736
3048.91+239422656+238691632+237856512+236968608+236174192+235657568+235574272
3044.41+235952176+236581216+237075392+237141184+236797232+236368336+236193520
3039.91+236222720+236008736+235255424+234172848+233121824+232236640+231656480
3035.41+231690192+232307040+232853424+232765008+232245168+231836208+231683968
3030.91+231651408+231789696+232162624+232437504+232166240+231430768+230754288
3026.41+230400416+230209808+230109872+230278528+230664144+230833296+230527664
3021.91+229986672+229529872+229165360+228759392+228237104+227563248+226911808
3017.41+226764464+227432048+228545056+229426368+229784032+229684272+229177648
3012.91+228400064+227743664+227489872+227518304+227624848+227776000+227865568
3008.41+227610496+226908864+226051648+225513936+225638640+226360992+227097248
3003.91+227241680+226891552+226651888+226689616+226612400+226412944+226722816
2999.41+227817360+229086880+229848320+230082688+230107552+230108560+230254640
2994.91+230700784+231223424+231336848+230958800+230562688+230576448+230982032
2990.41+231533568+231995952+232238768+232424096+232981824+234039152+235080208
2985.91+235556256+235631168+235886112+236485760+237143296+237755584+238574288
2981.41+239723968+240954528+241917616+242459072+242665536+242814320+243236240
2976.91+244074688+245177024+246317248+247391088+248344480+249068256+249552544
2972.41+250032656+250834624+252077920+253567488+254971072+256088144+256986304
2967.91+257869712+258823456+259763168+260587296+261248032+261758880+262321536
2963.41+263276288+264609856+265717296+266088000+266004160+266113888+266540576
2958.91+266947904+267161760+267145136+266712704+265902144+265287920+265264560
2954.41+265338880+264744688+263462288+262087232+260990992+260174352+259661504
2949.91+259512544+259571472+259591824+259500304+259349856+259114336+258750144
2945.41+258392288+258375904+258946080+259968400+260964336+261548320+261814192
2940.91+262146864+262697184+263271824+263738128+264256112+264991648+265851504
2936.41+266633504+267255712+267746352+268205232+268825120+269697280+270587200
2931.91+271156672+271391104+271525664+271633120+271642912+271688800+272032640
2927.41+272682432+273408480+273999200+274274592+274098784+273636352+273290144
2922.91+273163520+272913376+272283968+271393952+270370912+269177824+267936992
2918.41+266981808+266343744+265598336+264476000+263303472+262527168+261953392
2913.91+260889808+259062560+257044336+255551360+254586000+253586992+252203328
2909.41+250606192+249152672+248037168+247191472+246374192+245421104+244384272
2904.91+243324704+242133248+240797488+239612976+238864816+238526720+238454976
2900.41+238528160+238461376+237941952+237179392+236821472+237094096+237411696
2895.91+237067504+236014816+234810304+233930864+233315456+232609104+231739648
2891.41+230979120+230454544+230059792+229893616+230178896+230618816+230561376
2886.91+229944976+229341824+228963776+228448624+227720480+227231072+227242000
2882.42+227551968+227952672+228389936+228751200+228956576+229128256+229349152
2877.92+229449760+229220144+228657712+227950416+227406880+227310608+227641200
2873.42+228074288+228401040+228732912+229169136+229463136+229153744+227969856
2868.92+226140336+224328480+223108336+222508480+222208736+221976864+221720896
2864.42+221328992+220797008+220309776+219978048+219698656+219439984+219358384
2859.92+219498960+219648480+219623392+219470608+219328096+219267984+219321088
2855.42+219560512+220051696+220668416+221073584+221040656+220743376+220497312
2850.92+220291664+219891536+219298928+218732192+218178416+217345200+216116928
2846.42+214816592+213885504+213342064+212647536+211241008+209244752+207404048
2841.92+206246256+205553056+204811280+203916608+203197328+202885344+202775456
2837.42+202477472+201897984+201300768+200818416+200223712+199373808+198579568
2832.92+198217936+198215856+198194352+197896240+197292496+196530896+195880896
2828.42+195485920+195147616+194601328+193900848+193302256+192931376+192805024
2823.92+192981376+193421872+193843296+193909360+193530032+192930912+192485488
2819.42+192412832+192555888+192531072+192148096+191600352+191191232+190989920
2814.92+190825472+190541776+190171280+189798320+189382912+188887776+188542800
2810.42+188620800+188944400+188968544+188506928+187999696+187899968+188120512
2805.92+188287136+188238576+188049088+187753136+187336272+186947632+186821280
2801.42+186932832+186935088+186579792+186043552+185669264+185562240+185585536
2796.92+185559824+185329088+184848208+184324560+184054576+184036752+184003984
2792.42+183843568+183686688+183576848+183398464+183148976+182949424+182790528
2787.92+182561632+182330704+182298256+182437584+182423440+182058672+181581808
2783.42+181368112+181447056+181519584+181400688+181160352+180846784+180406400
2778.92+179925984+179644624+179616400+179663696+179706512+179820976+179927136
2774.42+179791952+179402704+179070128+179074448+179363936+179622656+179515424
2769.92+178964336+178252544+177765968+177570384+177388096+177013504+176560480
2765.42+176285408+176321584+176641168+177116928+177560944+177796896+177778784
2760.92+177624176+177487712+177381696+177226640+177075936+177111360+177308032
2756.42+177332224+176995712+176588816+176470032+176549248+176491632+176251952
2751.92+176097312+176221696+176598096+177066176+177378656+177285584+176781936
2747.42+176183104+175859584+175886320+176000448+175919936+175695200+175631168
2742.92+175830464+176048304+176135904+176277888+176570896+176746224+176595696
2738.42+176342096+176328672+176609952+177025504+177402192+177622752+177728144
2733.92+177905824+178143408+178139104+177798480+177495584+177574224+177909680
2729.42+178193728+178324320+178356032+178379568+178564192+179036304+179712128
2724.92+180421008+181074384+181559328+181707120+181542000+181334912+181310848
2720.42+181503008+181890848+182435328+183010096+183530144+184047984+184541248
2715.92+184798416+184750544+184747152+185227040+186212800+187333376+188283280
2711.42+189063952+189798320+190469648+190960112+191310256+191809264+192739920
2706.92+194076896+195490592+196645024+197418608+197889760+198247968+198750480
2702.42+199625728+200874864+202202448+203292480+204156672+205095168+206326976
2697.93+207788768+209294704+210755024+212147248+213402208+214440400+215344864
2693.43+216391504+217775552+219330672+220677024+221711776+222782464+224238240
2688.93+226003952+227755760+229355856+230891072+232415072+233900384+235403296
2684.43+237052736+238887472+240815376+242679360+244301200+245615296+246875264
2679.93+248500528+250546992+252552032+254117408+255419168+256913568+258757264
2675.43+260787120+262868224+264934768+266825744+268406688+269824608+271394944
2670.93+273174976+274854208+276203776+277499904+279271776+281666144+284321408
2666.43+286843776+289065376+290832576+292053440+293062880+294437920+296267200
2661.93+298069024+299561344+301016704+302729504+304629376+306549920+308497568
2657.43+310534400+312664352+314869088+317100480+319273952+321327744+323215488
2652.93+324931136+326616576+328474752+330468320+332378272+334206176+336146784
2648.43+338125344+339883840+341535264+343478336+345701280+347757120+349483200
2643.93+351227808+353290784+355552032+357718624+359657376+361491136+363473920
2639.43+365758400+368234432+370628608+372716320+374445280+376014048+377793152
2634.93+379935712+382158016+384168896+386114720+388230560+390340480+392197376
2630.43+394025856+396198336+398616448+400926272+403092512+405269760+407363200
2625.93+409211296+410972544+412925440+415052384+417179104+419309536+421490880
2621.43+423547584+425300032+426947520+428927424+431397248+434075104+436577024
2616.93+438765984+440761472+442730976+444723584+446702112+448663808+450657024
2612.43+452687200+454733568+456822816+458938496+460958560+462903616+465140384
2607.93+467941216+470942336+473498496+475507648+477408064+479404096+481308576
2603.43+483137952+485212640+487549696+489728672+491544128+493307936+495330656
2598.93+497503776+499548096+501393952+503142496+504878144+506644096+508484928
2594.43+510413152+512392960+514402080+516464320+518580768+520648256+522518944
2589.93+524155008+525668992+527213248+528901024+530865120+533182976+535657184
2585.43+537843776+539476480+540746240+542048640+543600896+545386560+547277888
2580.93+549126528+550889024+552695552+554600576+556363392+557768704+559073984
2576.43+560731136+562754880+564743296+566424192+567825920+569055488+570270976
2571.93+571744192+573629632+575730432+577686848+579294080+580610624+581921792
2567.43+583505024+585255104+586718144+587719808+588671552+590009344+591666304
2562.93+593347392+594972864+596536704+597856512+598834944+599772736+601107392
2558.43+602843968+604493696+605685248+606636416+607797312+609166080+610367680
2553.93+611329408+612382848+613703872+615118016+616478592+617800960+619051264
2549.43+620179648+621278976+622459648+623710144+625005888+626319552+627499136
2544.93+628433920+629304896+630386176+631734720+633252736+634780288+636040640
2540.43+636871808+637573888+638551936+639698368+640649152+641462208+642480064
2535.93+643735296+645014592+646270464+647519488+648627776+649525248+650359552
2531.43+651238848+652118336+653019328+654038144+655132736+656180544+657211328
2526.93+658342272+659551360+660667584+661535808+662141824+662646080+663308096
2522.43+664304960+665583744+666882560+667919680+668641728+669312576+670239488
2517.93+671362304+672287040+672800896+673180224+673873408+675006848+676315136
2513.44+677505984+678558656+679621824+680728000+681755072+682638272+683466240
2508.94+684339328+685277184+686257984+687205184+687959232+688409920+688685120
2504.44+689092032+689863424+691003904+692349120+693695552+694853184+695683456
2499.94+696231360+696782080+697593728+698559168+699369728+700001152+700728320
2495.44+701652992+702578560+703372288+704105728+704827968+705501376+706109440
2490.94+706594112+706832832+706916544+707218048+707963136+708956352+709848576
2486.44+710438848+710678784+710692160+710795392+711212672+711799104+712263360
2481.94+712558464+712796288+712975040+713069312+713218432+713568704+714050432
2477.44+714500992+714881600+715170688+715202816+714848640+714311424+714038784
2472.94+714284672+714836736+715224640+715177856+714856512+714594944+714469120
2468.44+714287808+713989568+713743040+713561920+713162496+712427776+711676224
2463.94+711253888+711151296+711206528+711313600+711289344+710963264+710538496
2459.44+710434432+710630720+710574656+709883968+708789184+707774976+707065280
2454.94+706538112+705988096+705437312+705130688+705141824+705090240+704567552
2450.44+703716928+703051840+702771584+702638592+702504512+702504192+702665280
2445.94+702654080+702144384+701265984+700484352+700080960+699892288+699602176
2441.44+699156864+698773184+698597056+698526656+698412928+698278656+698214912
2436.94+698161792+697981056+697698048+697503296+697492288+697583168+697703424
2432.44+697889216+698140416+698331520+698322688+698097216+697788032+697597952
2427.94+697654976+697890048+698094080+698109440+697927424+697669568+697528192
2423.44+697629952+697854528+697934592+697815680+697756416+697990720+698418752
2418.94+698728384+698690496+698305152+697778816+697381696+697238976+697234048
2414.44+697168640+697004992+696900352+696995392+697201728+697286144+697167040
2409.94+696993920+696878464+696722624+696438528+696112256+695813696+695437888
2405.44+694900032+694311040+693834368+693509760+693252992+692934528+692448000
2400.94+691811520+691133248+690463104+689777984+689113984+688556032+688090624
2396.44+687580480+686888896+685971072+684955456+684127936+683655360+683343872
2391.94+682861120+682103360+681151872+680025216+678738304+677452992+676364032
2387.44+675533824+674921856+674347008+673449024+671987072+670237312+668792448
2382.94+667903872+667245696+666352576+665075584+663577856+662036160+660456256
2378.44+658780352+657078592+655499712+654032704+652448896+650567168+648445824
2373.94+646240960+643966848+641499968+638829248+636217280+633974208+632067584
2369.44+630128384+627912448+625530496+623165056+620831168+618539584+616406464
2364.94+614489664+612709568+610986048+609267136+607480064+605688704+604204032
2360.44+603264704+602700800+602105024+601281280+600385408+599708096+599419328
2355.94+599456512+599623360+599834176+600193472+600785856+601505216+602140544
2351.44+602528896+602593216+602354432+601899136+601200896+600037248+598203840
2346.94+595765696+592962176+589985728+587012288+584297792+582007680+580012416
2342.44+578100032+576335744+574928832+573750144+572278272+570160384+567604544
2337.94+565136512+563134592+561631936+560364480+558948416+557187584+555270464
2333.44+553549760+552152448+550920256+549677312+548418944+547283200+546389056
2328.95+545666880+544852800+543755072+542480192+541320000+540418304+539644352
2324.45+538772672+537738944+536679616+535722592+534836832+533960224+533135744
2319.95+532342560+531357120+530042400+528633088+527486336+526649728+525876192
2315.45+524926816+523730432+522417088+521256960+520383616+519591072+518565568
2310.95+517212512+515637696+514008672+512520032+511249024+510025984+508708384
2306.45+507447840+506379584+505287296+503928640+502383840+500803744+499180544
2301.95+497611872+496325088+495225952+493908224+492254368+490588416+489175520
2297.45+487969440+486800288+485489152+483906496+482170624+480603552+479301824
2292.95+478011968+476539136+475002688+473596384+472325920+471065728+469748544
2288.45+468419168+467154336+465957728+464764288+463505472+462100256+460471616
2283.95+458728800+457204480+456070560+455071040+453828160+452286944+450656096
2279.45+449113056+447717760+446437440+445162080+443809504+442402656+440984832
2274.95+439606048+438413472+437467200+436465824+435043552+433318048+431759360
2270.45+430559008+429528160+428505760+427470464+426369952+425152544+423870656
2265.95+422598624+421380000+420280736+419282400+418228512+417057312+415882784
2261.45+414672256+413191360+411512096+410104448+409165632+408303424+407139328
2256.95+405799936+404548768+403351392+402055520+400724672+399571968+398714112
2252.45+398079200+397438848+396537312+395277856+393794592+392301440+390945824
2247.95+389789984+388820768+387936288+387008704+385979456+384863296+383731264
2243.45+382715872+381929472+381261760+380382720+379099616+377630400+376355648
2238.95+375391616+374553920+373668064+372724640+371784288+370878432+369960320
2234.45+368899840+367632736+366361344+365394592+364720064+363975552+362952064
2229.95+361869888+361033504+360417568+359758016+358925184+358062912+357366272
2225.45+356802496+356115680+355142592+354035424+353060352+352244192+351374240
2220.95+350325568+349224992+348279264+347522944+346792896+345917248+344908064
2216.45+343933280+343137920+342503424+341884864+341158688+340361248+339634720
2211.95+339004000+338276288+337286144+336160640+335179488+334426688+333753472
2207.45+333052128+332411168+331959008+331616000+331089376+330213120+329210848
2202.95+328428960+327829504+327096032+326217248+325554400+325236512+324903936
2198.45+324189184+323117152+321954816+320961024+320291392+319925440+319672384
2193.95+319366848+318978016+318479104+317789376+316925216+316055168+315336480
2189.45+314757216+314134624+313286944+312254080+311306464+310651968+310235584
2184.95+309890752+309494080+308951296+308226496+307449632+306764640+306126624
2180.45+305472960+304951264+304689696+304471968+303964992+303151552+302336160
2175.95+301791072+301552544+301451072+301245376+300765472+299982016+298987232
2171.45+297971840+297162240+296630144+296214784+295723552+295142944+294590496
2166.95+294196416+294037024+294018528+293856768+293382656+292784800+292346752
2162.45+292043360+291648384+291075712+290399520+289656640+288847520+288079776
2157.95+287526240+287213952+286942176+286494080+285897856+285367872+284962368
2153.45+284521664+284012192+283636480+283472736+283286560+282892096+282418528
2148.95+282048064+281745792+281393824+280994112+280607552+280233504+279834176
2144.46+279388544+278914784+278458304+278030560+277558912+276977632+276325056
2139.96+275663968+274987424+274306368+273751008+273447264+273366848+273360544
2135.46+273296640+273108096+272766816+272274496+271657024+270975744+270353472
2130.96+269916832+269659712+269423072+269065344+268615840+268223808+267974848
2126.46+267793856+267542960+267190592+266838864+266525472+266125520+265577248
2121.96+265088048+264875088+264817008+264614144+264222768+263865296+263676960
2117.46+263588592+263447536+263094128+262509600+262010192+261976736+262246144
2112.96+262169584+261453280+260513104+259864432+259569808+259422336+259271104
2108.46+259045856+258766192+258547632+258385008+258076144+257522576+256898640
2103.96+256372112+255938096+255594352+255355712+255085232+254633072+254119200
2099.46+253779024+253640480+253585184+253532976+253380432+252999872+252460608
2094.96+252015680+251799040+251773792+251883680+252007120+251863216+251285776
2090.46+250496352+249886576+249615184+249555360+249516128+249400704+249239184
2085.96+249121984+249068560+249004640+248867360+248639760+248272288+247740464
2081.46+247165616+246732480+246482848+246296160+246046928+245693808+245261952
2076.96+244819632+244470832+244314176+244326032+244300048+244004112+243462496
2072.46+242955040+242675888+242576592+242601584+242789488+243039088+243073424
2067.96+242793952+242385248+241944912+241315504+240459088+239712016+239424016
2063.46+239521376+239642208+239583408+239421696+239263920+239126672+239065424
2058.96+239168864+239329104+239286896+238994032+238726272+238658336+238600240
2054.46+238298400+237802992+237335248+237007488+236754880+236436880+235938400
2049.96+235299536+234759824+234549408+234672448+234962032+235266224+235468064
2045.46+235415424+234991056+234242656+233371776+232605344+232115152+231993360
2040.96+232160016+232337488+232306864+232158048+232075552+231948992+231546000
2036.46+230996304+230639584+230423968+230002048+229389216+228983232+228944320
2031.96+229078896+229248768+229429936+229500256+229381536+229209216+229055632
2027.46+228762000+228280416+227825696+227508000+227178768+226778352+226479568
2022.96+226390064+226400496+226381728+226327808+226302352+226283744+226059312
2018.46+225366016+224294192+223399712+223163808+223464976+223777888+223781968
2013.96+223551424+223309648+223194800+223203296+223203120+223019120+222599296
2009.46+222102272+221762144+221665456+221702800+221757088+221825072+221902048
2004.96+221868768+221647840+221360640+221196800+221179680+221166480+221031536
2000.46+220787872+220572288+220506448+220543920+220504656+220300000+220009488
1995.96+219730064+219478944+219192096+218613648+217340480+215418688+213812992
1991.46+213690960+215054112+216579600+217060432+216586768+216114176+216289040
1986.96+217002816+217768384+218161520+218036480+217582496+217130544+216863856
1982.46+216815200+217028512+217441392+217705056+217470704+216841392+216246112
1977.96+215905648+215684272+215424400+215188784+215135584+215309440+215587504
1973.46+215800560+215855696+215728016+215397536+214909280+214406752+213909888
1968.96+213138656+211845856+210339024+209419808+209666880+210862768+212188848
1964.46+212985456+213249936+213360768+213459232+213360416+212972608+212462352
1959.97+212007936+211672752+211542864+211688512+211982752+212141408+211994432
1955.47+211626656+211279680+211130640+211128032+211096384+210978016+210875424
1950.97+210843600+210835504+210812960+210765696+210652080+210387376+209834992
1946.47+208965424+208160384+207938560+207930960+206790416+203984096+201197584
1941.97+200784640+203003760+205901184+207754704+208506576+208838928+208991712
1937.47+208842144+208454208+208089200+207941488+208039568+208278272+208474160
1932.97+208526224+208506432+208510320+208532224+208536128+208480976+208232560
1928.47+207682576+207047600+206736608+206864160+207156544+207180048+206402624
1923.97+204486960+202059920+200633184+201129664+202998928+204967888+205580112
1919.47+203168528+197471056+191717120+190585408+194882608+200593088+203984096
1914.97+205044176+205403056+205633088+205659632+205695424+205652368+204983104
1910.47+203684944+202514512+202051360+202296752+203054944+204076688+204965456
1905.97+205369696+205245792+204881728+204706528+204890640+205161424+205244848
1901.47+205275936+205437888+205527632+205272032+204776320+204392864+204372656
1896.97+204587184+204428832+203444768+202257936+202053456+202980000+204104064
1892.47+204851600+205065696+203888576+200620064+196778496+195313104+197279584
1887.97+200799200+203533456+204783440+205081088+204999312+204796224+204659248
1883.47+204852096+205519040+206392272+206956048+206988816+206711008+206435200
1878.97+206314656+206333440+206366496+206380784+206550736+206925568+207206144
1874.47+207153936+206865936+206486720+206138208+205845280+204626048+200485728
1869.97+193106448+185989216+183669344+186875584+192446960+197446048+201163968
1865.47+203782416+205330480+206069808+206553008+207048096+207421088+207531648
1860.97+207508624+207619984+207875488+207984768+207891536+207979424+208440112
1856.47+208967376+209283184+209364000+209174032+208837440+208802912+209183424
1851.97+209504176+209550560+209591904+209491504+208661792+207054256+205471888
1847.47+205007568+205762016+204829424+197216624+182527440+169793808+169881648
1842.97+182274208+196197168+204166064+207285744+208961040+210067504+210448400
1838.47+210305392+209534176+208371504+208013168+208939456+210065408+210440784
1833.97+210249424+210019808+209911744+208890992+204447616+195724192+187163408
1829.47+185388544+191620640+200679744+207030448+208106864+203763312+196919088
1824.97+193223424+195966720+202429072+207841616+210593824+211724576+212103584
1820.47+212067680+211943120+211629072+210801248+209794736+209319376+209540160
1815.97+210161792+210907072+211474000+211605872+211307424+210450160+208512608
1811.47+205522128+202957664+202744240+205083024+207975856+209405024+209520208
1806.97+209879584+210957888+211773424+211777152+211215056+209662832+206408944
1802.47+202444272+199730272+198330496+196781408+195360720+196290928+200289792
1797.97+205077696+207792816+207661664+206356288+205895184+205195088+199666592
1793.47+186976080+172805040+166973776+172694256+184056208+194577600+202548000
1788.97+208069568+210722528+211185344+210810192+208919024+204328288+199352112
1784.47+198217296+201520704+205817888+208013616+207239712+204166064+201126944
1779.97+200933232+203657616+206750880+208658080+209276400+207906288+204779056
1775.48+202597680+201375472+194595824+177281104+156169456+145500464+151950864
1770.98+169051872+185722288+194138016+192308864+185444928+182993424+189480448
1766.48+199909328+206946000+209059024+209059648+207625152+201920176+191012304
1761.98+180471504+178691440+187459152+199391264+206475232+207044864+203165296
1757.48+196766384+191454384+192399936+199783584+207466464+211202544+211566080
1752.98+207185072+194247344+176545584+166921296+172045088+183700496+191319104
1748.48+194059504+196682304+201125776+206125552+210349568+212692208+212247328
1743.98+209825568+208293328+210200256+214145232+214029504+205151344+192196736
1739.48+186848112+194222048+207161888+216747040+219782224+213489792+192636640
1734.98+158493088+126331424+116347320+134503536+167164720+195201808+208580384
1730.48+209866624+208340720+210531040+215706224+219856512+221306016+221320368
1725.98+221281568+221043776+219875552+218057952+216985056+217726560+219827008
1721.48+221607264+221187840+216453664+204098544+181362832+152516944+132396024
1716.98+134831056+154864800+173861728+182673648+188314176+198561008+210712800
1712.48+218931200+222567664+223295296+222021696+221089056+222945728+225495488
1707.98+224160720+218128480+210774800+205635504+204371328+206711824+211514608
1703.48+218425264+224680688+219584960+191315248+145598976+112272784+119590680
1698.98+161432640+205661264+225069536+211355808+177532432+154539104+167711264
1694.48+208728144+248223680+270024352+278670112+283376960+286628608+288265472
1689.98+290620064+295052448+299935040+305179648+311781696+313522848+297770688
1685.48+261753552+224855344+215469904+240835584+282051072+318426592+341806144
1680.98+353417024+358700768+363856160+371854752+381248576+388572960+389314784
1676.48+379227360+361238592+349925184+359504736+385439520+408809696+418382144
1671.98+418645440+417627040+415311328+408818112+403226752+408926496+428287104
1667.48+451973408+469969120+480557088+487404480+491858112+491269888+484938208
1662.98+479037984+482386432+496544704+514027520+527625568+536840064+544325184
1658.48+550991680+556666944+561508480+564389952+562009728+549468672+520737024
1653.98+474431840+426576064+411149280+448021440+515023712+573597952+605011648
1649.48+612703424+607687360+598146752+586889856+574447296+565578112+570292288
1644.98+592109504+619356544+637155840+642980864+643932416+644328128+643565248
1640.48+642237056+641364288+638328384+630668544+619664896+604296512+579224512
1635.98+547576448+528400096+537403392+564779584+587843200+596278080+594419392
1631.48+588853376+582155840+574372928+564036480+549514560+532577728+518292960
1626.98+509734816+504766624+497859968+483582048+461043936+437269024+422646816
1622.48+420242304+423187968+423460448+418789856+411443616+402929152+389055552
1617.98+362038752+323147584+291973440+290608288+315068064+340291200+350913440
1613.48+350498080+347238080+343658688+339799264+336355328+332838912+328507744
1608.98+324732064+322710976+321217504+319309440+318041120+317786976+317229984
1604.48+315788736+314154432+312696512+311578560+311318304+311647136+311522944
1599.98+310984096+310887648+311000320+310581216+309986496+309559936+308498752
1595.48+306690912+305684352+306383264+307912800+309477184+311020256+312051072
1590.99+312104160+311870400+312070688+312426144+312941984+314277024+316141184
1586.49+317545216+318596064+319785600+320551744+320689664+321278080+322566336
1581.99+323639936+324819712+326922912+328839552+329620352+329639072+324714912
1577.49+305636288+272743328+246943936+252115024+284594048+318563808+337391872
1572.99+343795168+346340512+346153056+338392224+322870528+309105760+308406432
1568.49+321456544+338296960+349613216+352924256+350348928+345925536+344109472
1563.99+346863328+352113472+355007072+348207040+323753888+281414688+234904528
1559.49+202408368+190907936+198948048+227068656+269627168+306452768+318892256
1554.99+309098144+297220864+300160160+316292864+332495328+338904064+334810368
1550.49+326501792+321558144+323048768+328327264+332760352+332765504+325917056
1545.99+312417376+298273600+291857952+292478208+288257920+271560928+250203152
1541.49+235300992+223250752+204189872+185344352+189002480+222211328+265186064
1536.99+295833888+308260736+307050688+296425376+279813664+265105312+262064544
1532.49+272008192+285913920+295248544+299023232+299095360+295279616+288501536
1527.99+282711488+279080256+273662816+265097808+259211984+261213584+266882864
1523.49+265798768+251204112+226045456+202884544+197004000+213861120+242380160
1518.99+263803312+267269152+257660816+249644224+252454016+262614992+272779264
1514.49+279950976+282687968+279164000+272058560+268194080+269440704+270424768
1509.99+266889984+258716720+244232752+219775696+187634752+160025824+152191056
1505.49+170614096+207099008+244634016+269782688+280063968+281639104+281698720
1500.99+282173504+279501792+271234144+262147056+258956656+258617440+251550384
1496.49+239128448+236621408+252228912+274703168+289804576+295465280+295658208
1491.99+290620384+279774784+268326128+264209712+269526944+278565536+284546752
1487.49+286766976+290335008+298828000+309428736+317251520+321503200+324527872
1482.99+327272224+328988960+330099200+332303648+336267264+341264160+346572352
1478.49+351022432+351885792+347649824+342348448+342652256+348256256+350215392
1473.99+342204384+329229056+322700928+329743904+349140928+373893952+395329376
1469.49+408356256+414578720+418666240+422177824+422613216+417147552+406583552
1464.99+397737728+399800544+413788576+429696128+438835008+442517504+444644448
1460.49+443574560+436824864+425568992+408782592+382815168+354455872+344492096
1455.99+365332096+403290368+435671200+453158912+459538656+460701568+459891488
1451.49+459360640+460583520+462257280+460918400+455005216+447702560+444577312
1446.99+447934528+454604224+459805600+461711552+461622912+461124512+460522400
1442.49+459805952+459397536+459074336+457789376+455605152+453017984+446447616
1437.99+429265888+402752960+382418464+383930624+403027616+421181024+427737216
1433.49+426017184+422562144+419100000+414435872+407888896+400185216+394041024
1428.99+392385376+394179008+395099328+393246624+390131936+386113824+379877856
1424.49+372509728+367221984+365211040+365352128+365501440+360427584+343709408
1419.99+317796096+298026848+297998592+313214560+328735392+337157280+340996928
1415.49+343574848+344986144+344985984+344260640+343029056+341244512+339562592
1410.99+338554144+337933344+337404160+337238720+337605472+338077120+337709280
1406.50+335238048+330280832+325108512+323596480+326869216+331553504+333984480
1402.00+334024032+332705504+328618656+320294304+310827008+305951616+307363936
1397.50+311191744+312547712+308662624+299542656+289259296+284750720+289220288
1393.00+298062816+304238944+305387328+303835264+302147104+300269984+295679392
1388.50+286308032+274816224+268287584+270736800+278055232+283539552+285255456
1384.00+285201824+284699904+283758304+282685952+281691200+280276928+278252192
1379.50+276143296+274425568+273398656+273193472+272959168+271080864+266994224
1375.00+261959664+258005520+256916192+259410272+264126448+268349040+270548160
1370.50+271057184+270308576+268466496+266830224+267031248+268587712+269518144
1366.00+269072000+267575312+264449632+259179088+253685872+250955024+251463952
1361.50+253358464+255665888+258851264+262546384+265166640+265994240+265891856
1357.00+265706160+265345312+264663088+264111024+264089632+264404048+264671696
1352.50+264763776+264687136+264408016+263968096+263558912+263371456+263427632
1348.00+263611632+263819376+264045696+264275536+264380496+264292432+264201376
1343.50+264313664+264355920+263555120+261314944+257962672+254793120+253254288
1339.00+253832528+255641904+257198784+257697024+257539104+257679520+258555088
1334.50+259732032+260510784+260668896+260551520+260542240+260634816+260551328
1330.00+260177312+259749584+259555920+259549600+259446832+259156048+258898560
1325.50+258890480+259095168+259256672+259065872+258443744+257685648+257035728
1321.00+256202048+254824176+253357968+252767936+253274272+254123184+254623808
1316.50+254710544+254500096+254015488+253431104+253086048+253161856+253589632
1312.00+254203616+254821072+255253584+255302496+254820400+253969232+253352512
1307.50+253484624+254107648+254424944+254064720+253464624+253262368+253569808
1303.00+253889152+253688704+253068544+252690528+252945072+253514816+253934256
1298.50+254099232+254019808+253659648+253285152+253376304+253972240+254613248
1294.00+255025248+255329616+255596128+255746528+255888320+256225168+256645360
1289.50+256825584+256751040+256781440+257142416+257603440+257764688+257565568
1285.00+257332736+257366272+257666768+258128432+258738064+259405968+259844272
1280.50+259866960+259683024+259635872+259760160+259844416+259888288+260209600
1276.00+260982384+261889920+262414304+262387280+262098512+261957168+262192624
1271.50+262786992+263535056+264179200+264613008+264958672+265442224+266225600
1267.00+267315952+268533088+269609184+270394016+270933856+271333600+271650240
1262.50+271945792+272329056+272937664+273945280+275480736+277419712+279384864
1258.00+281093632+282562816+283863776+284902528+285653536+286386528+287433024
1253.50+288841280+290419968+291943616+293208320+294144736+294988672+296066656
1249.00+297330592+298461504+299454560+300632384+301999136+303178816+304144384
1244.50+305411424+307293248+309443232+311364256+312985600+314561120+316271040
1240.00+318068032+319804768+321456672+323197824+325185312+327318272+329312096
1235.50+330928256+332118752+333143296+334513440+336516480+338794016+340688512
1231.00+341973120+343005280+344262304+345919872+347747200+349294112+350340160
1226.50+351144832+352103712+353322912+354729216+356289600+357897088+359316672
1222.01+360467168+361507392+362550560+363550912+364439744+365140960+365576608
1217.51+365864768+366336480+367186208+368246880+369104576+369342144+368885664
1213.01+368286432+368280416+368866688+369306144+369191872+368913792+368845728
1208.51+368735904+368261920+367638112+367265536+367166016+367055776+366782304
1204.01+366451168+366204480+366007456+365662368+364992192+364010400+362912384
1199.51+361929824+361187776+360640704+360132032+359578688+359087232+358805152
1195.01+358677600+358436160+357902624+357213440+356668800+356377504+356156448
1190.51+355822080+355465184+355357504+355616704+356042208+356312192+356319200
1186.01+356240224+356282752+356465440+356737088+357172992+357915008+358976192
1181.51+360210112+361453408+362644224+363816608+364989184+366138688+367327712
1177.01+368717408+370293280+371806432+373183936+374701056+376496416+378247328
1172.51+379622624+380671776+381625888+382723712+384305344+386492576+388785600
1168.01+390573536+391928832+393371392+395097696+397009504+399095232+401276544
1163.51+403314080+405246912+407402144+409739360+411837056+413642976+415540864
1159.01+417605536+419521952+421244928+423058272+424976256+426714496+428296128
1154.51+430191840+432762272+435845600+438975264+441904480+444849248+448201184
1150.01+452037952+456059296+459985632+463818496+467684352+471592736+475448640
1145.51+479229728+483148640+487591936+492790656+498556064+504469056+510298944
1141.01+516080704+521867488+527641920+533396160+539070080+544519552+549828416
1136.51+555542272+562220608+569770304+577494080+584747136+591330496+597425152
1132.01+603530176+610336064+618190656+626673664+635021632+642945600+650699008
1127.51+658457344+666092096+673557184+681062912+688694720+696200064+703380736
1123.01+710455680+717832896+725645760+733749376+742028288+750456064+758866752
1118.51+766935616+774475328+781657536+788887744+796478656+804412928+812409344
1114.01+820199360+827667648+834720192+841297600+847649088+854340352+861664192
1109.51+869177664+876061056+881944896+887256000+892775744+898895168+905315328
1105.01+911510336+917364288+923185024+929187584+935222336+940980864+946270016
1100.51+951148288+955869312+960622784+965357568+970074944+975064576+980432832
1096.01+985695296+990429248+995042112+1000155264+1005421696+1009799168
1092.16+1012987136+1015866688+1019373760+1023508416+1027638912+1031359616
1088.30+1034791040+1038225856+1041720704+1045050752+1048003648+1050655552
1084.44+1053356800+1056383040+1059636672+1062730432+1065319360+1067308480
1080.58+1068820032+1070121152+1071471104+1072820544+1073722560+1073741824
1076.73+1072850752+1071306304+1069430208+1067664576+1066383232+1065334016
1072.87+1063638976+1060768128+1057190592+1053722048+1050492672+1046881536
1069.01+1042301120+1036717632+1030445376+1023772480+1016948224+1010335808
1065.16+1004202560+998291136+991885376+984427008+975920576+966735680+957236352
1060.66+947634624+938000512+928358464+918827008+909585280+900602496+891478400
1056.16+881614848+870673088+859008256+847544896+836904448+826704832+816096576
1051.66+804861312+793510080+782412672+771353024+759971968+748284160+736680320
1047.16+725550080+714863680+704238464+693559168+683213120+673343232+663345856
1042.66+652669568+641706112+631299200+621747456+612801920+604226624+595837248
1038.16+587359168+578731712+570306880+562408896+554864128+547205632+539253120
1033.66+531378944+524192384+517907744+512108672+506260096+500328448+494680448
1029.16+489556544+484924064+480676576+476674912+472719264+468731872+464870336
1024.66+461353248+458313760+455853408+453987552+452386368+450443904+447858688
1020.16+445052256+442858528+441798720+441746368+442205024+442732992+443110560
1015.66+443379648+443851200+444875840+446507136+448577056+451097760+454176416
1011.16+457478688+460385344+462979776+466332800+471324704+477581216+484004928
1006.66+490046464+495997088+502262592+508852448+515644992+522825088+530799072
1002.16+539634752+548704960+557174080+564884096+572474432+580494208+588768064
997.66+596838976+604651200+612434368+620247680+628002432+635639552+642970496
993.16+649672192+655762112+661744896+667960128+674110336+679700672+684552128
988.66+688595712+691574592+693401856+694505664+695374912+695906304+695595456
984.16+694293760+692387648+690183552+687470400+683895424+679493696+674571072
979.66+669252480+663456704+657226496+650740032+643984256+636651136+628475200
975.16+619593408+610483072+601539200+592788416+584092288+575522688+567287616
970.66+559360576+551490624+543587712+535756448+527944448+519908032+511667648
966.16+503700928+496526464+490238272+484552864+479174112+473994848+469001088
961.66+464187744+459644416+455528960+451800896+448210272+444701344+441626080
957.16+439319328+437687552+436343104+434883808+432991808+430598048+428031072
952.66+425799296+424221856+423388192+423174720+423115520+422608096+421489472
948.16+420207456+419353984+419200864+419579104+419985856+419958848+419512224
943.66+419061344+418970688+419358560+420097216+420766688+421020096+421150464
939.16+421758752+422772032+423489760+423565952+423198592+422549504+421824576
934.66+421597856+422193344+423140608+423913408+424652352+425519648+426019680
930.16+425592352+424424256+423279680+422869440+423426336+424563040+425568672
925.66+426031872+426026592+425705536+425115552+424381856+423671296+423039872
921.16+422541344+422232224+421928128+421324032+420495200+419847872+419476256
916.66+419029600+418262912+417317344+416379136+415385472+414226880+413086272
912.16+412341600+412065760+411800224+410996448+409564512+407845888+406231296
907.67+404951840+403996576+403089504+401982496+400828000+399980992+399447360
903.17+398857056+397970400+396897120+395793152+394606912+393191296+391621728
898.67+390267968+389426336+388944832+388456576+387926912+387588544+387345248
894.17+386730816+385575456+384279936+383269504+382525856+381820128+381132672
889.67+380582848+380104480+379495776+378773600+378129120+377453440+376313984
885.17+374613408+372928128+371888864+371488480+371284384+371115712+371290144
880.67+372016224+372828672+372889984+372000224+370928320+370390016+370167040
876.17+369721280+369182560+369029664+369209024+369174752+368528608+367303232
871.67+366004704+365364352+365531520+365713664+365229888+364428704+363847680
867.17+363223808+362252032+361469632+361364288+361301376+360279136+358295104
862.67+356346880+355413056+355625664+356149056+356004736+355199456+354598400
858.17+354599264+354680736+354348096+353731872+353141440+352638592+351954112
853.67+350575808+348451232+346489408+345346816+344149184+341854720+339352896
849.17+338368640+338877600+339384160+338952416+337423584+334733440+331264960
844.67+327774752+324379872+320891456+317960960+316252256+315280480+314596480
840.17+314877696+316305792+317444288+317046272+315466304+313409696+311104384
835.67+309158432+308393888+308499232+308185504+306775264+304645856+302319328
831.17+300134400+298470432+297552736+297300160+297651232+298381696+298331424
826.67+296038080+291986688+288889024+288415808+289033376+288585600+287382976
822.17+286855328+286924608+286987840+287723232+289458304+290498720+289447744
817.67+287474336+286307040+285760224+284886656+283815488+283062496+282598752
813.17+282401472+282733888+283605568+284747200+285770272+285944864+284757216
808.67+282930688+281839968+282110848+283651040+286124512+288483456+289392128
804.17+288937760+288550784+288899424+289414272+289703520+289917664+290180672
##END=
