##TITLE=octarelline 6 front
##JCAMP-DX=4.24
##DATA TYPE=INFRARED SPECTRUM
##DATE=31/1/2005
##TIME=19:37:25
##SAMPLING PROCEDURE=film
##ORIGIN=Vincent
##DATA PROCESSING=no operation
##XUNITS=1/CM
##YUNITS=ABSORBANCE
##RESOLUTION=2
##FIRSTX=4000.283
##LASTX=800.31372
##DELTAX=-0.64282227
##MAXY=0.20094934
##MINY=-0.0079605635
##XFACTOR=1
##YFACTOR=1.8714866e-010
##NPOINTS=4979
##FIRSTY=0.012366466
##XYDATA=(X++(Y..Y))
4000.28+66078306+66501436+66592964+66076032+65311652+64877496+64871804+65023576
3995.14+65094276+64883328+64294952+63586176+63103168+62739340+62173112+61572644
3990.00+61527048+62290320+63441464+64267652+64362500+63923976+63488376+63361432
3984.86+63464208+63648728+63776964+63637212+63241180+63015336+63201244+63407064
3979.71+63251700+62992448+63016620+63190288+63214032+63179496+63381472+63847200
3974.57+64246744+64193280+63677588+63201956+63227248+63562148+63664508+63379200
3969.43+63002824+62863692+63152772+63827720+64399760+64259260+63456816+62750140
3964.28+62699692+63058684+63211896+62977528+62797604+63094924+63603384+63658108
3959.14+63134576+62602636+62496492+62685064+62943420+63248144+63497756+63443452
3954.00+63027552+62505300+62181492+62059456+61711276+60699280+59274632+58264124
3948.86+58034368+58134348+58244412+58702716+59708304+60656832+60720148+59663744
3943.71+57967136+56545300+56331296+57612064+59654236+61286880+61893384+61775196
3938.57+61668236+62015700+62665880+63165424+63252692+62981224+62329112+60922628
3933.43+58509228+55795676+54285816+54768128+56356240+57626524+58324684+59265692
3928.29+60886848+62556176+63126904+61872216+59172468+56386288+54774364+54710492
3923.14+56016848+58196896+59963924+59848248+58003168+56290060+55891880+55876720
3918.00+54735272+52504144+50882472+51530948+54345852+57553356+59712140+61056116
3912.86+62360228+63495480+63937480+63728628+63161160+62447756+62019108+62061732
3907.72+61830592+60397584+57421496+52551828+45738408+38864476+34708924+33431200
3902.57+32874458+32590246+33974320+36386916+37324688+36924544+38468568+43672636
3897.43+50506276+56145376+59512184+60839280+60908292+60789584+60595636+58458728
3892.29+52479524+44268492+38990220+40403036+46907896+53996280+58736052+59765784
3887.15+55297140+45106500+34026396+29388178+33638328+42435188+50303012+54719128
3882.00+55020796+51280784+45666180+42381088+44153452+49574760+55225896+59309680
3876.86+61837840+62415212+59961372+54796732+49540556+47253444+48816920+51628820
3871.72+50622340+42157968+28562972+18001842+17658258+27171486+40097916+49847204
3866.58+52759396+48521144+40753380+35783816+37435452+42990424+46747140+47023072
3861.43+47162672+50045632+54653132+58537596+60498528+60316104+58721020+57004976
3856.29+52963872+39277472+11917711-20219186-40632084-42536044-32624740
3851.79-17424414+2127610+23528870+40995236+51687940+57527692+61038076+63226828
3846.65+64591900+64997548+63248144+58882324+53741464+50548408+50159832+50679880
3841.51+49692180+47271508+44949812+41040564+31076342+16005868+5704588+8407221
3836.36+19776038+29671020+35159240+40243432+46531928+50518580+49508908+45794552
3831.22+44254956+47476912+53672952+58939076+60861008+59666720+56906596+54422176
3826.08+53932428+55802332+58378304+59487624+57576472+51058504+39278456+25743346
3820.94+17594842+19245298+28490718+39970000+48544600+49012856+38397556+21543640
3815.79+10597443+14139776+28630746+44148800+54655112+60077760+62477448+63359448
3810.65+63647732+63935496+63625700+60044260+50304424+36104804+25466438+25896640
3805.51+35905884+47391364+54549188+55554684+48412396+32330472+13839482+5055759
3800.37+11794254+27690326+42607756+51451048+54062824+52309756+49485592+49226888
3795.22+52566820+57297296+60987664+63179212+64470728+65199548+65538004+65709884
3790.08+65709172+65416640+64974644+64561176+64100292+63509700+62786664+61789116
3784.94+60587684+59888840+60302044+61449644+62426584+62481000+60797248+56936648
3779.79+52292360+49709708+50716496+54261464+58507952+62324564+64987588+66101072
3774.65+66039308+65559344+65115188+64778924+63780520+60239440+53201620+45289848
3769.51+41432404+43998668+50348948+55545472+56494280+53854852+51003080+50938176
3764.37+53792852+57527836+60413056+61883720+61516680+58594056+53297440+47883676
3759.22+45486464+46877552+49434160+50480264+50429520+51370436+53835176+55707260
3754.08+52609132+40070892+19448792+1308301-4268980-1431422-2461302-8995047
3748.94-9902029+1951653+20481746+34822936+36632532+21003140-8243736-33425738
3743.80-35140256-13758533+13109920+32234118+42657772+48241084+51451476+52927928
3738.65+51748472+46204976+36561712+26020986+18121584+14935925+17288248+23401444
3733.51+28033576+27119144+23327394+23695154+31202650+41908244+50690476+55879128
3728.37+57843484+56677968+53003776+49068232+47283932+48257884+50766960+52809204
3723.23+52690204+50530312+48768472+49692036+52556212+54712048+55122780+55070084
3718.08+55933820+57846456+60027796+61263452+60805060+59124652+56219628+49672400
3712.94+37807844+25003880+19304852+22822656+29407228+33663588+36862428+42338552
3707.80+49779516+56469196+60885424+63060816+63568128+63269324+62523208+60365216
3702.66+55921208+50604816+47550324+48617756+52757272+57395696+60754088+62672128
3697.51+63732320+64262960+64310312+63903500+63028688+61860572+60711776+58852248
3692.37+54477404+47694752+41796004+38296024+32866182+21409340+8939934+6479262
3687.23+17740350+34890196+48753640+56725164+60531032+61891828+62019816+62240168
3682.09+63079720+63694368+62893824+60399004+57279436+55171924+53879348+49585776
3676.94+37644204+18781606+1539848-3840667+5510752+23449508+40316620+47992404
3671.80+43236732+30266654+18833340+16172726+21529396+30457518+40644708+51011836
3666.66+59476276+64703112+67542448+69108128+69555896+69358224+69444592+69863352
3661.52+70073048+70061928+69979816+69793936+69677056+68808184+64431900+55383128
3656.37+46099720+43338900+48704060+57767188+65500588+69050416+67058616+59759824
3651.23+49039132+36980764+25677056+18413372+17958908+23267176+30881358+39246800
3646.09+48831328+58988304+67619488+73399736+76405696+77271552+77053344+77107400
3640.95+78081080+79480392+80528960+80894008+80715280+80596272+81292784+82753664
3635.80+83699464+82717120+79805480+76737936+75762232+77523240+79780000+78211968
3630.66+69223976+53294044+36463496+27443978+31048308+44285972+59869960+72436296
3625.52+80742344+85866072+89068744+90996824+91846416+91620056+89920368+85870376
3620.38+79381192+72637080+68892112+69431760+73051864+78217832+83723696+87901096
3615.23+89583352+89377928+88234832+86119280+83955880+84435648+87964448+90357208
3610.09+87917752+82713392+79913992+81489624+85429632+89804328+94460120+99359880
3604.95+103637128+106495728+107993704+108699792+108970888+108849968+108553120
3600.45+108523688+108811576+109114984+109588088+110586088+111517040+111284848
3595.95+110057240+109250544+109710192+111117976+112989088+115060400+117038424
3591.45+118673968+119443168+118033392+113601136+107673208+103212232+101703432
3586.95+102757480+106096352+111655936+118066272+123176024+126163944+127863240
3582.45+129243184+130476744+131307400+131676712+131948280+132534000+133367720
3577.95+134111344+134830112+135874528+137144048+138169840+138880032+139656112
3573.45+140698000+141775184+142544432+142912912+143056768+142888624+141559360
3568.95+138203600+133409632+129163920+127102632+127616544+130516400+135288400
3564.45+140664784+145216816+148538048+151056880+152896224+153801296+154041328
3559.95+154506528+155771344+157474528+158860208+159744368+160695536+162146784
3555.45+163649088+164326416+163862688+162745200+161802208+161786512+163101744
3550.95+165546704+168391024+170752528+171943408+171774512+170738368+169695568
3546.45+169314656+169905552+171481424+173635584+175754304+177723392+179983792
3541.95+182650864+185110688+186705584+187328528+187333040+187320464+187834048
3537.45+188846960+189850512+190696960+191801104+193334000+194901024+196194848
3532.95+197326272+198407472+199353408+200096608+200640064+201027520+201426208
3528.45+201977808+202567744+203088832+203739888+204661232+205604560+206401776
3523.95+207331584+208615248+210002720+211237584+212521600+214179120+216132816
3519.45+217906304+219028160+219468592+219772688+220615360+222179328+224133664
3514.95+226126592+227919136+229184496+229709440+229810224+230096736+230746880
3510.45+231460448+232195792+233436848+235445888+237656448+239244496+240032320
3505.95+240460160+240911280+241491696+242318976+243511408+244889184+246054768
3501.45+246862752+247636704+248842160+250582432+252481440+254103424+255390384
3496.95+256487872+257304000+257678000+257974608+258978384+260936592+263104656
3492.45+264525136+265071168+265455264+266309296+267540352+268667360+269499712
3487.95+270243968+271174720+272504768+274327616+276284192+277556224+277684224
3483.45+277162336+276876480+277228704+278114208+279376928+280947456+282736512
3478.95+284523456+285888096+286576576+287061504+288166080+289930432+291538816
3474.45+292526112+293187744+293719232+294001024+294322112+295252000+296753728
3469.95+298323360+299826944+301350368+302588928+303242496+303635360+304187968
3465.45+304778432+305209088+305714496+306461312+307131264+307485312+307881664
3460.96+308837600+310377056+312054496+313363840+314048960+314211616+314226048
3456.46+314485920+315215776+316434208+317913504+319211936+319954720+320152864
3451.96+320123456+320173184+320559968+321503808+322792448+323541760+323040288
3447.46+321875104+321526816+322680992+324587648+326245920+327459584+328479840
3442.96+329366304+330074848+330689952+331249248+331679904+331988384+332288064
3438.46+332629376+333021472+333510912+334114432+334776672+335470688+336206208
3433.96+336921280+337474336+337734560+337672288+337462880+337384544+337520640
3429.46+337729056+338045088+338754368+339833376+340681120+340726464+340080128
3424.96+339428640+339396416+340036256+340775744+340930400+340377888+339666688
3420.46+339488800+340182816+341545024+342870688+343394368+343026368+342472224
3415.96+342356192+342518560+342465856+342199296+342274560+343116800+344479776
3411.46+345558432+345641088+344727200+343497344+342708224+342639168+343037888
3406.96+343462720+343701696+343892096+344250976+344766848+345243776+345516064
3402.46+345519872+345338336+345220384+345364864+345655072+345797792+345615264
3397.96+345037408+344033888+342806560+341828032+341403552+341344864+341243296
3393.46+340951392+340699200+340752576+341025056+341153728+341033376+341021248
3388.96+341374048+341792960+341830912+341456416+340929696+340410720+339900000
3384.46+339336704+338709696+338236128+338252608+338717696+339143296+339172768
3379.96+338882560+338441632+337951328+337566496+337335520+337106208+336909440
3375.46+337019456+337314912+337265504+336843104+336682560+337019456+337300960
3370.96+337072576+336472064+335708224+334782912+333815616+333049728+332545056
3366.46+332191232+331861344+331350560+330513088+329589184+329046912+329023968
3361.96+329236736+329392768+329396000+329243072+328918368+328329120+327348576
3357.46+326095104+325087680+324771712+324968032+325096608+324871616+324502560
3352.96+324308608+324408672+324741952+325149248+325413280+325340992+324866400
3348.46+324060672+323077024+322060512+321095552+320248544+319637664+319338400
3343.96+319245888+319155616+318975008+318749152+318509120+318289344+318219552
3339.46+318325536+318315360+317847520+317024448+316303392+315972608+315905728
3334.96+315771808+315329536+314676448+314260096+314411968+314841536+314912736
3330.46+314389984+313548800+312703136+312026176+311683456+311683456+311746880
3325.96+311646432+311465312+311280576+310936384+310397024+309968288+309908640
3321.46+310035424+309933472+309401120+308588288+307779648+307177216+306841568
3316.96+306683968+306429408+305812128+304975936+304442368+304501696+304981024
3312.46+305675776+306481952+307004512+306773376+305988384+305324864+304958304
3307.96+304561888+304174912+304195424+304594752+304863968+304600544+303693216
3303.46+302326752+301111264+300708320+301091104+301663328+302029760+302093344
3298.96+301719104+300966112+300317888+300155584+300347744+300605984+300710688
3294.46+300326880+299345504+298350848+297996992+298045248+297773184+297109632
3289.96+296611040+296551040+296674688+296619840+296153728+295257056+294292608
3285.46+293760640+293678560+293535520+293000832+292299136+291732224+291197632
3280.96+290475168+289765728+289570944+290024320+290587040+290542528+289667488
3276.47+288354336+287161504+286327296+285713056+285096576+284396960+283672416
3271.97+283065408+282728224+282612416+282415104+281968224+281494880+281137600
3267.47+280524864+279340480+278002112+277101056+276411648+275244416+273626112
3262.97+272396352+272069536+272181536+271934112+271184832+270496832+270210240
3258.47+269785280+268514688+266664256+265254448+264716880+264477072+263909328
3253.97+263050432+262243296+261652112+261226672+260769760+260079264+259238512
3249.47+258595984+258290448+258009392+257330416+256116992+254638832+253482208
3244.97+253168720+253609648+254091232+253931680+252973744+251456128+249792224
3240.47+248511584+248024864+248233456+248550240+248398464+247624240+246500928
3235.97+245483648+244907632+244769584+244726240+244397952+243680672+242757248
3231.47+241845808+241042944+240338848+239623424+238745280+237805424+237279360
3226.97+237500912+238111600+238373088+237919888+236933600+235825264+235031808
3222.47+234748192+234550800+233732864+232315984+231167040+230862976+231073360
3217.97+231299504+231507216+231704064+231544640+230782448+229747152+229043856
3213.47+228923568+229095616+229001712+228253952+226928096+225526496+224607216
3208.97+224322432+224292704+223992768+223283600+222431696+221680256+221045280
3204.47+220508912+220099904+219781776+219457024+219027728+218350752+217417728
3199.97+216666688+216629648+217124272+217299248+216643920+215454016+214278960
3195.47+213448400+213098896+213113728+213026112+212423072+211397552+210357552
3190.97+209603488+209293280+209494928+210023488+210411136+210267424+209643600
3186.47+208988448+208666384+208486160+207890800+206712480+205467760+204734528
3181.97+204555488+204607152+204627088+204505200+204260480+204012928+203741552
3177.47+203185744+202250224+201297248+200743344+200561024+200436784+200215424
3172.97+199962112+199715632+199370288+198835248+198233616+197820864+197640288
3168.47+197484240+197293472+197278544+197490432+197624176+197430960+196952080
3163.97+196325344+195778672+195720752+196305936+196981600+196987600+196225696
3159.47+195219824+194402096+193790608+193216752+192617488+192167856+192093328
3154.97+192285216+192342016+192105360+191811472+191632544+191489376+191336896
3150.47+191146896+190665904+189696640+188557072+187789520+187527664+187521984
3145.97+187554208+187507872+187262720+186807984+186294896+185847392+185454224
3141.47+185024240+184426336+183603712+182783760+182363296+182435824+182585024
3136.97+182303440+181506976+180561136+179886080+179591776+179473280+179296496
3132.47+179022000+178737104+178493600+178305392+178158112+177888848+177233664
3127.97+176225072+175401760+175268848+175607776+175694032+175213056+174472160
3123.47+173651552+172526672+171201024+170455680+170828016+171851968+172624240
3118.97+172709184+172186992+171332912+170607968+170454480+170808528+171117456
3114.47+170961584+170348800+169440560+168385360+167444864+166923248+166892912
3109.97+167153328+167467008+167715744+167796944+167525008+166807312+165916176
3105.47+165312160+165098144+164919648+164525264+164083408+163801520+163613888
3100.97+163418288+163301056+163349872+163442928+163328800+162859888+162211440
3096.47+161813936+161891536+162138016+162093824+161654656+160982976+160248352
3091.98+159676208+159441952+159288320+158783632+158106144+157957328+158558368
3087.48+159356624+159798288+159808384+159497072+158959760+158376512+157881664
3082.98+157431776+157044864+156911664+157008160+156918768+156338672+155503936
3078.48+154910752+154792160+155028896+155386192+155615168+155468432+154849840
3073.98+153968304+153195984+152766032+152656160+152671824+152596032+152442416
3069.48+152551424+153131424+153685856+153461072+152495888+151555728+150965632
3064.98+150333792+149534944+149022080+148996560+149103488+149073120+148929296
3060.48+148670464+148400624+148455344+148780784+148730336+148034976+147322272
3055.98+147108128+147071280+146822256+146593696+146644528+146674464+146306144
3051.48+145624144+144978128+144593584+144489056+144510128+144451232+144238400
3046.98+143935200+143615296+143374272+143322768+143433280+143581744+143733456
3042.48+143846768+143689440+143130784+142415440+141781952+141158176+140547664
3037.98+140225984+140176640+139952720+139455024+139228384+139585616+140077152
3033.48+140152672+139828128+139450160+139276256+139413888+139793168+140100064
3028.98+140015600+139539040+138975040+138640080+138633936+138774304+138734640
3024.48+138371696+137943040+137888432+138320320+138819968+138898976+138619840
3019.98+138482992+138645376+138698384+138436448+138278912+138592080+139130272
3015.48+139537264+139843568+140049968+139790528+138865792+137738128+137101936
3010.98+137174576+137624960+138040656+138303296+138471104+138396512+137811504
3006.48+136942592+136578608+137132032+138050048+138550672+138514704+138306368
3001.98+138180112+138229152+138502816+138917328+139327232+139769968+140365136
2997.48+141035440+141559504+141786800+141649488+141156704+140522816+140167968
2992.98+140463600+141465120+142812576+143904880+144387056+144433712+144419152
2988.48+144500832+144707968+145109472+145635040+146046576+146350608+146882944
2983.98+147817824+148908352+149841232+150558112+151142048+151642256+152030640
2979.48+152251264+152357168+152557760+153023856+153699456+154420768+155109936
2974.98+155774608+156511072+157503856+158811648+160166704+161216336+161909600
2970.48+162470128+163120896+163936144+164790576+165411248+165727488+166094336
2965.98+166878640+167920512+168770160+169311840+169790992+170302368+170672560
2961.48+170870912+171170160+171784496+172507584+172935232+172939712+172729008
2956.98+172493280+172219600+171872672+171467280+170986592+170439920+169954976
2952.48+169597968+169211408+168642064+167958848+167316416+166875392+166870048
2947.98+167330096+167792336+167782224+167515472+167581792+168072336+168584080
2943.48+168912064+169153088+169311248+169362720+169505712+169852416+170136688
2938.98+170159328+170252048+170887568+172038928+173226128+174045104+174468224
2934.48+174746224+175096864+175424736+175497392+175480384+175951408+177089152
2929.98+178211744+178543328+178166336+177798528+177841792+178116752+178347664
2925.48+178450704+178380368+178063424+177523744+176859840+176102720+175230528
2920.98+174312736+173483680+172742864+171927936+170969600+170079248+169551696
2916.48+169379088+169198160+168656800+167693872+166474272+165226176+164194608
2911.98+163545920+163134848+162545216+161542848+160415248+159605088+159070720
2907.49+158363040+157385728+156634624+156420224+156292832+155625648+154441488
2902.99+153302224+152668272+152663984+153107632+153472032+153205600+152341984
2898.49+151509664+151213632+151403216+151711664+151769984+151393616+150717952
2893.99+149972688+149034592+147621472+145988976+144856384+144552368+144777168
2889.49+145157456+145470688+145489968+145207536+144974016+144959424+144847248
2884.99+144445952+144072528+143981120+144005696+144042496+144248992+144545440
2880.49+144537792+144143600+143773632+143729184+143861040+143899008+143833360
2875.99+143884144+144212784+144684416+144946176+144790560+144360848+143923728
2871.49+143608368+143389568+143106928+142535616+141640368+140695936+139921856
2866.99+139227504+138586800+138292272+138484752+138721296+138463760+137780544
2862.49+137216240+137085360+137196592+137141264+136685104+135955632+135373440
2857.99+135280784+135561584+135753248+135602192+135375792+135485904+135955632
2853.49+136450816+136709168+136693760+136445392+136060784+135744896+135550592
2848.99+135158944+134265648+133109616+132261776+131948440+131888416+131681400
2844.49+131055648+129876184+128285056+126769392+125778128+125260984+124795472
2839.99+124165600+123595112+123366376+123412912+123423552+123221672+122831824
2835.49+122246952+121438776+120604376+120108632+120063752+120174904+120088224
2830.99+119711864+119167952+118620392+118189688+117908512+117681800+117367360
2826.49+116911728+116437712+116188736+116304336+116651224+116995944+117270608
2821.99+117491616+117495256+117104184+116486272+116043464+115943560+116015536
2817.49+116015976+115802528+115369728+114884400+114573840+114496680+114537208
2812.99+114587936+114575288+114441880+114304288+114369520+114516000+114275512
2808.49+113524872+112819200+112709704+113039344+113241360+113042832+112580496
2803.99+112047536+111566688+111296448+111329688+111520240+111635184+111704264
2799.49+111965536+112411928+112654104+112379256+111765360+111232904+110956920
2794.99+110764544+110424928+109904240+109406112+109204728+109376680+109731080
2790.49+110049400+110308880+110545472+110656160+110503112+110161080+109917432
2785.99+109958456+110112352+110025760+109629848+109253008+109185008+109321584
2781.49+109388704+109326944+109261992+109278816+109338400+109310712+109071200
2776.99+108716760+108552392+108673576+108782008+108664728+108555864+108742272
2772.49+109111936+109376680+109464544+109431040+109251848+108933472+108656032
2767.99+108620368+108818080+109044960+109121072+109076856+109070904+109153976
2763.49+109255192+109377992+109568952+109735288+109793296+109929456+110316856
2758.99+110724776+110829536+110737264+110737400+110787312+110733200+110723040
2754.49+110926464+111136120+111086784+110881192+110790656+110929360+111346520
2749.99+112056112+112808016+113205192+113208384+113188352+113393264+113657928
2745.49+113735936+113668816+113711960+114031712+114545360+115049512+115490256
2740.99+116019912+116689456+117255344+117494816+117571792+117832696+118320400
2736.49+118806888+119244400+119852416+120733176+121686712+122444960+122916416
2731.99+123193976+123490376+124018648+124790224+125605824+126328848+127035272
2727.49+127816024+128638712+129475856+130388664+131424640+132564464+133752752
2723.00+134891552+135894176+136841056+137912080+139126464+140355888+141607728
2718.50+143026032+144617280+146215520+147695904+149048752+150349600+151782816
2714.00+153496256+155369344+157136624+158757584+160411680+162193936+164084304
2709.50+166091488+168221616+170458960+172867584+175480224+178065808+180349728
2705.00+182417136+184549136+186816384+189168672+191692176+194405536+197039408
2700.50+199401936+201712848+204322544+207306480+210487792+213644944+216618096
2696.00+219374000+222006704+224637072+227395824+230459808+233875120+237376384
2691.50+240597200+243448096+246153648+249017232+252243792+255832016+259560544
2687.00+263203808+266714704+270109696+273357632+276527232+279843808+283457824
2682.50+287283616+291087680+294609440+297755104+300828800+304316992+308247520
2678.00+312065568+315331392+318219232+321191648+324539584+328336256+332503392
2673.50+336811584+341000576+344939200+348610304+352066208+355440416+358900416
2669.00+362573440+366570752+370897408+375267744+379251520+382701184+385814528
2664.50+388854944+392079584+395786528+400020672+404354912+408338944+412009088
2660.00+415678848+419443456+423174688+426823904+430517728+434443424+438681920
2655.50+443048512+447192000+450967136+454580864+458281920+462079168+465855488
2651.00+469584864+473372704+477359424+481571040+485845504+489980288+493928576
2646.50+497731776+501353824+504791232+508235264+511956928+516089664+520555328
2642.00+525052864+529183488+532876576+536565856+540674688+545093888+549439104
2637.50+553548608+557458880+561199424+564882688+568715264+572759040+576935552
2633.00+581229184+585574208+589716160+593559616+597393792+601442560+605545152
2628.50+609597376+613832256+618306048+622600256+626383808+629851008+633379584
2624.00+637153280+641213312+645501952+649788544+653878656+657849792+661882496
2619.50+665999488+670115264+674164160+678052416+681707648+685263424+689014720
2615.00+693140992+697558016+702011520+706222080+710069056+713715648+717450624
2610.50+721352576+725208640+728804480+732238912+735877952+739983680+744403072
2606.00+748681088+752480576+755825280+759018432+762421504+766184576+770093696
2601.50+773828864+777431680+781203904+785098432+788662272+791703680+794575040
2597.00+797666752+801019648+804512832+808026752+811392320+814522368+817597568
2592.50+820870592+824332544+827735488+830849536+833632960+836254720+838988288
2588.00+841972928+845131264+848288832+851236928+853780928+855997952+858312960
2583.50+861048384+864057216+867003648+869754880+872338944+874810432+877278592
2579.00+879776064+882150400+884367552+886678784+889169856+891549120+893731456
2574.50+896086464+898730816+901174400+903062400+904710656+906606656+908849216
2570.00+911251200+913565632+915565312+917231936+918794304+920392768+921945664
2565.50+923460672+925099008+926848128+928526976+930097600+931622848+933047744
2561.00+934361600+935791680+937484224+939200832+940605632+941666560+942621952
2556.50+943713920+945024192+946426304+947717376+948851072+949943488+951079104
2552.00+952292480+953657408+955133440+956476224+957539968+958516864+959630912
2547.50+960825536+961904832+962764992+963399360+963927104+964594816+965489664
2543.00+966391360+967146432+967948160+968955136+969937920+970628096+971112576
2538.51+971603776+972140032+972729280+973468928+974320256+975026304+975445376
2534.01+975776832+976335872+977229696+978301632+979303680+980071040+980569920
2529.51+980857344+981046912+981323968+981908160+982903232+984146240+985232896
2525.01+985794944+985877184+985949120+986399296+987143232+987835200+988291904
2520.51+988513408+988531392+988468288+988532608+988767232+989036672+989324416
2516.01+989757120+990300992+990763392+991087040+991350336+991564672+991749440
2511.51+992049344+992500096+992874304+993004800+993049536+993248640+993632320
2507.01+994055168+994325888+994267072+993864960+993341888+992958784+992803008
2502.51+992815616+992868416+992794304+992545792+992328832+992368384+992584256
2498.01+992688576+992543360+992235136+991872256+991477120+991012864+990408512
2493.51+989609600+988636608+987592256+986622976+985848320+985259712+984727552
2489.01+984180480+983672320+983191296+982581120+981766464+980853056+979890688
2484.51+978785088+977539264+976314816+975153344+973937536+972670144+971484224
2480.01+970345024+969033536+967486720+965923392+964594048+963542336+962551616
2475.51+961253760+959419904+957251968+955235520+953628032+952238912+950764032
2471.01+949191296+947774144+946649152+945551424+944032064+941965696+939672512
2466.51+937472832+935364992+933309120+931454336+929852672+928264192+926519872
2462.01+924745792+922997760+921064512+918842944+916557696+914412416+912352064
2457.51+910282112+908197632+906081728+903979968+902083840+900454464+898844800
2453.01+897062080+895248448+893527040+891731264+889766592+887902400+886393856
2448.51+885099200+883718848+882139200+880392704+878511808+876584000+874767232
2444.01+873160704+871722560+870319360+868816512+867218432+865714816+864468672
2439.51+863384512+862250816+861052864+859934144+858897408+857766272+856427648
2435.01+854957312+853518464+852279424+851383232+850838336+850428864+849856640
2430.51+849029504+848146688+847419648+846764160+845933376+844906496+843916608
2426.01+843092992+842357888+841709504+841278592+841007104+840561152+839713856
2421.51+838605440+837571520+836857280+836469504+836166656+835668672+834975424
2417.01+834334912+833842240+833309184+832556608+831625408+830704576+830020800
2412.51+829688576+829508736+829092672+828324672+827456960+826683200+825960896
2408.01+825323392+824913920+824649216+824218304+823471488+822494592+821363968
2403.51+820144832+818993280+817986048+816979648+815857984+814729408+813736960
2399.01+812828288+811843904+810697920+809438656+808191424+807025600+805852352
2394.51+804556608+803189184+801869312+800563136+799169472+797754624+796492032
2390.01+795401792+794304000+793014592+791521728+790006144+788670144+787470912
2385.51+786101952+784324352+782265408+780289408+778631168+777203712+775721152
2381.01+773980672+772027904+770024256+767998400+765861504+763636544+761463168
2376.51+759361920+757184896+754847552+752397952+749861184+747212160+744505664
2372.01+741857088+739263232+736603904+733836160+731072320+728444224+725943488
2367.51+723400640+720645760+717742208+715021056+712774848+710908672+709010624
2363.01+706726784+704022528+701204416+698769152+697066688+695977664+695014656
2358.51+693806144+692333312+690741824+689201024+687922496+687016512+686337280
2354.02+685689664+685083072+684585408+684129408+683675968+683294848+682883776
2349.52+682074560+680587072+678466880+675912128+673080832+670054464+666836032
2345.02+663498048+660341824+657605760+655080192+652433344+649832448+647665088
2340.52+645781376+643654720+641202304+638822080+636701760+634640128+632478784
2336.02+630294208+628199360+626194432+624188736+622123008+620103296+618298176
2331.52+616660032+614976512+613227904+611588352+610049664+608395136+606542016
2327.02+604638592+602874304+601379520+600162560+599009344+597660608+596133824
2322.52+594630272+593168128+591611776+589961216+588303872+586598336+584747520
2318.02+582807040+580959424+579357632+577989888+576615168+574939840+572981760
2313.52+571092160+569490688+567987776+566269184+564251456+562090432+559998144
2309.02+558090944+556329344+554615168+552931008+551283072+549570880+547693248
2304.52+545705728+543699136+541665472+539618240+537689472+535905856+534053952
2300.02+531960864+529785056+527846176+526206368+524579776+522693952+520625792
2295.52+518646656+516823680+515003296+513141504+511355296+509634560+507806752
2291.02+505825440+503816416+501845216+499898496+498044576+496393440+494938432
2286.52+493549120+492029376+490172864+487971200+485722048+483707040+481831168
2282.02+479852512+477791232+475826816+473950848+472054656+470191328+468468320
2277.52+466817344+465114400+463382304+461706176+460081856+458471648+456872512
2273.02+455226144+453405408+451417024+449481440+447800736+446320096+444836320
2268.52+443262496+441643808+439979520+438221760+436431840+434726880+433078976
2264.02+431355488+429572640+427906656+426423328+424986272+423445696+421783584
2259.52+420061504+418330912+416622112+414965408+413404640+411939168+410432672
2255.02+408711360+406814016+405024576+403555296+402347232+401201728+399927936
2250.52+398381472+396605920+394892576+393468320+392187872+390790560+389294240
2246.02+387863520+386477152+385007008+383480704+382026592+380686912+379393728
2241.52+378005504+376390432+374639616+373039328+371669088+370265408+368663232
2237.02+367049312+365594656+364210848+362838784+361598048+360518720+359465152
2232.52+358367488+357222848+355949120+354543808+353218688+352111232+351062048
2228.02+349873024+348536640+347110912+345664384+344373728+343338560+342333248
2223.52+341068800+339618176+338260096+337048096+335858336+334700288+333676160
2219.02+332710656+331588608+330229888+328773216+327428544+326317536+325419136
2214.52+324591584+323659072+322525888+321235008+319910720+318653312+317498144
2210.02+316460192+315503008+314474688+313238912+311911104+310800224+310007008
2205.52+309235616+308126208+306681152+305225184+304009024+302984992+301991456
2201.02+301017376+300179168+299478784+298752800+297874592+296869120+295809248
2196.52+294749920+293748768+292827776+291928448+291026528+290218688+289554816
2192.02+288882336+288023104+287011712+285986976+284951168+283826848+282689760
2187.52+281737568+281015392+280330880+279496640+278546656+277631040+276794048
2183.02+275945312+275013024+274022688+273061248+272237376+271612992+271100512
2178.52+270480032+269602400+268534880+267483680+266617728+265976224+265470176
2174.02+264940768+264261296+263411120+262457952+261498048+260606624+259810064
2169.53+259096224+258448784+257844176+257221152+256521248+255756064+254978912
2165.03+254232752+253558112+252970656+252388128+251664544+250781696+249886960
2160.53+249089472+248334096+247526528+246697840+245990928+245493792+245096704
2156.03+244556240+243761968+242897616+242216752+241739600+241317968+240891776
2151.53+240466928+239929728+239151296+238233312+237413424+236767408+236190320
2147.03+235615232+235074656+234572992+234072480+233571312+233063680+232463504
2142.53+231672576+230749920+229916032+229346000+228988288+228636752+228177328
2138.03+227685520+227278336+226938336+226513264+225854560+224964544+224067696
2133.53+223457216+223151872+222812000+222179760+221430528+220864080+220406528
2129.03+219765664+218969184+218368064+218126160+218005664+217682208+217085520
2124.53+216406736+215860640+215454160+215017680+214493616+214041392+213758368
2120.03+213486000+213067648+212594640+212216016+211889568+211481936+210949904
2115.53+210323888+209667824+209095472+208694848+208422624+208180528+207913024
2111.03+207587232+207182464+206739088+206280368+205734704+205106800+204612144
2106.53+204412736+204347456+204154912+203825504+203495264+203126400+202543744
2102.03+201709680+200797520+200044432+199590800+199417440+199382784+199319952
2097.53+199084064+198606400+198015792+197602336+197470112+197342528+196923920
2093.03+196284720+195688112+195210944+194790176+194451120+194227616+194005952
2088.53+193659520+193240960+192904240+192739968+192750624+192833136+192767616
2084.03+192394448+191831008+191343984+190979024+190514080+189844208+189221184
2079.53+188924512+188824288+188507872+187832416+187131072+186791632+186805904
2075.03+186812176+186509536+185940896+185407472+185116256+184956544+184716592
2070.53+184432768+184312656+184352208+184309536+184040896+183592320+182993904
2066.03+182274560+181637568+181304320+181183040+180972480+180569072+180138512
2061.53+179822384+179578176+179339344+179168880+179170240+179287808+179319648
2057.03+179159904+178928912+178736048+178491680+178097616+177697408+177478944
2052.53+177376384+177130336+176573264+175747744+174876592+174295584+174201040
2048.03+174390096+174464528+174316752+174171952+174115024+173886768+173282160
2043.53+172502240+171917360+171645392+171536064+171452640+171380448+171337392
2039.03+171317600+171265952+171043600+170561072+170013616+169728304+169675792
2034.53+169425056+168729120+167880800+167351360+167299024+167530944+167744288
2030.03+167728704+167511040+167315824+167272272+167237168+167004256+166554960
2025.53+166013776+165492048+165073776+164851632+164881920+165094720+165261968
2021.03+165134832+164684272+164098992+163483760+162729936+161841824+161170528
2016.53+161078752+161494080+161960176+162075872+161812304+161474048+161383440
2012.03+161539152+161622928+161377680+160879648+160378048+159983664+159635744
2007.53+159304464+159094528+159078416+159120928+159003008+158706784+158400512
2003.03+158163872+157924144+157679568+157550192+157576384+157658848+157712432
1998.53+157709184+157605696+157343840+156903808+156358976+155919712+155764544
1994.03+155614560+154788032+153105712+151504336+151169664+152121312+153232656
1989.53+153595264+153332816+153069360+153153296+153546064+154049728+154405856
1985.04+154414416+154150400+153920560+153927504+154088032+154210576+154149952
1980.54+153791968+153122256+152382896+151958560+151985440+152238736+152459680
1976.04+152640496+152878464+153097296+153100976+152842736+152496480+152216864
1971.54+151971552+151673712+151320400+150881504+150198896+149208800+148181520
1967.04+147567072+147616320+148222352+149028688+149649424+149904672+149910128
1962.54+149856432+149757728+149534800+149257792+149117200+149197872+149442160
1958.04+149768032+150058720+150082624+149636000+148823264+148055616+147670416
1953.54+147629584+147677472+147675264+147653744+147622048+147531856+147400656
1949.04+147325344+147337136+147282608+146895920+146146448+145485408+145368048
1944.54+145346832+144251776+141802832+139549024+139398464+141410288+143832048
1940.04+145181184+145509856+145640208+145930480+146123312+145973072+145605728
1935.54+145342272+145365248+145595856+145818848+145901328+145875696+145846832
1931.04+145892496+146006800+146031408+145712800+145014208+144294480+143969632
1926.54+144085920+144400608+144576512+144089152+142523840+140423488+139207824
1922.04+139725008+141451584+143252880+143888272+141926640+137111040+132179768
1917.54+131110376+134588256+139252912+142042800+143012496+143493744+143871328
1913.04+144044560+144200416+144231920+143618960+142408848+141379264+141058080
1908.54+141301200+141830624+142530896+143225216+143593216+143451376+143004272
1904.04+142726672+142858032+143141216+143246112+143222000+143244944+143252448
1899.54+143107088+142845232+142588416+142457216+142464416+142269712+141485408
1895.04+140522224+140368240+141195216+142123088+142540624+142418096+141250208
1890.54+138438208+135091504+133754240+135598688+139095472+141929440+143129744
1886.04+143107824+142665200+142375152+142442064+142776848+143194480+143523920
1881.54+143642368+143571728+143468592+143441520+143458432+143425616+143297168
1877.04+143176688+143300544+143740512+144213952+144391632+144259440+144064272
1872.54+144075024+144131984+142995136+138919248+132080792+125860056+124055280
1868.04+126962520+131690776+135770384+138761536+141009872+142636672+143758896
1863.54+144591824+145152752+145317392+145102832+144737408+144508656+144516736
1859.04+144611536+144700016+144930432+145346544+145719728+145921808+146063216
1854.54+146205648+146356224+146613440+146916688+147016768+146940720+146892976
1850.04+146626256+145671264+144133888+142740496+142325152+142876272+141915328
1845.54+135245168+122576488+111641848+111741856+122450656+134530944+141475712
1841.04+144080912+145230944+145861712+146074560+146038592+145420608+144269888
1836.54+143748608+144475968+145517808+145908400+145696768+145306640+144937648
1832.04+143926816+140339728+133318944+126250992+124569240+129510952+136982064
1827.54+142404720+143536560+140090672+134376320+131147120+133312208+138663312
1823.04+143161232+145493952+146686256+147472880+147868832+147895056+147510912
1818.54+146641152+145618704+144992704+144986368+145499424+146260160+146832704
1814.04+146925104+146581200+145702768+143872656+141253872+139212960+139295648
1809.54+141504528+144083264+145360528+145524144+145940656+146959136+147604080
1805.04+147407168+146823888+145694400+143284528+140156928+137870816+136538976
1800.55+134957936+133385312+133816216+136987936+140964016+143207568+143038832
1796.05+142006480+141875328+141495408+136697728+125616488+113482016+108780688
1791.55+113931184+123586504+132264848+138739936+143268624+145536208+146055104
1787.05+145872176+144355568+140454480+136066800+134851088+137564784+141372208
1782.55+143362352+142536944+139607488+136840912+136614080+138818064+141318560
1778.05+142976304+143738016+142840672+140303280+138374480+137142288+131145808
1773.55+116159504+97986912+89000336+95027520+110235488+124657688+131502656
1769.05+129498976+123603856+121939488+127901240+136726032+142220448+143642064
1764.55+143737856+142795520+137942752+128385200+119156888+117480568+124754160
1760.05+134740256+140802192+141517904+138459360+133127928+128527600+129034504
1755.55+134937120+141284000+144542496+144940000+141061008+129799248+114722344
1751.05+106832728+111477856+121327144+127469384+129584832+131952544+135999920
1746.55+140232304+143385168+144818672+144166560+142268384+141388832+143351024
1742.05+146640992+145975120+137605152+125994680+121437608+128194880+139717216
1737.55+148048976+150478272+144857408+126850328+97541112+70039544+61726756
1733.05+77593608+105717624+129733272+141246080+142420608+140990176+142652400
1728.55+147213776+151368368+153231312+153406560+153125216+152644048+151544080
1724.05+149968400+148947728+149390240+151093040+152845376+153009984+149395840
1719.55+138811312+118990176+94001192+76750656+78912064+96062384+112320024
1715.05+119942864+124821600+133524640+143845584+150906288+154134592+154917392
1710.55+154016784+153358832+154918000+156885152+155422592+149910576+143317760
1706.05+138736720+137554080+139455760+143501552+149462960+154867728+150370832
1701.55+125871296+86489800+57992668+64589332+100686280+138371408+154403040
1697.05+142146320+113152768+93844488+105477168+140633760+174334944+192992320
1692.55+200467088+204482528+207093552+208202304+209921888+213624928+218072832
1688.05+223041920+228973472+230325984+216571024+185770816+154607792+147135088
1683.55+169256608+204632960+235581232+255372304+265396640+270313152+275002560
1679.05+281781600+289728288+296171136+297078048+288614464+273412128+264030048
1674.55+272440992+294677760+314785024+323272736+323778208+323020416+321081408
1670.05+315604448+310959680+316089888+333021312+353600128+369103648+378107424
1665.55+383927488+387817632+387408480+381916384+376711424+379730080+392460224
1661.05+408087296+420027808+427978528+434525984+440453024+445510240+449909760
1656.55+452593152+450326912+438844480+413579232+373884800+333373408+320858720
1652.05+353263008+411323936+461721856+488562336+495169600+490997344+482696576
1647.55+472591232+461522048+453832960+457973376+476845152+500504160+516138368
1643.05+521360896+522234304+522670560+522233792+521311360+520685184+518077824
1638.55+511330976+501600864+488187200+466508672+439008928+421964736+429088512
1634.05+452036608+471140992+477490080+475086656+469895936+464074336+457291424
1629.55+448057280+435178144+420559520+408605344+401584224+397338208+391191616
1625.05+378762272+359495904+339501920+327614560+326113600+328700064+328488448
1620.55+324017376+317738880+310984800+299769152+277080320+244048368+217720192
1616.06+217067472+238388096+260071552+269217632+269172096+266928848+264368384
1611.56+261290128+258359408+255467728+252177344+249538688+248335328+247386176
1607.06+245807776+244482480+243983680+243592656+242826192+241773520+240317504
1602.56+238724112+237917136+238047696+238246800+238216000+238311168+238313152
1598.06+237884176+237506304+237429376+236955520+235969328+235528256+236120480
1593.56+237122032+238213984+239468992+240343440+240359088+240059472+239995072
1589.06+240032800+240447440+241873008+243837568+245337888+246484944+247636880
1584.56+248185424+248086432+248598896+250017280+251264528+252315056+253837680
1580.06+255043616+255301904+255031408+250610784+234042496+205635392+183501312
1575.56+188211136+216378032+245580816+261561824+266772592+268614528+268074032
1571.06+261022496+247314944+235183040+234460064+245743344+260294640+269940480
1566.56+272552832+270050048+265976848+264221936+266492816+270941824+273384256
1562.06+267647120+246937056+210798576+170757312+142554592+132407776+138987376
1557.56+162642832+198711104+230045264+240436864+231427120+220436176+222434288
1553.06+236184208+250168896+255753440+252378256+245399104+241160176+242371648
1548.56+247104912+251501440+252155136+246654736+235200352+223034944+217152064
1544.06+216797584+212107504+197128256+178825968+166432800+156322864+139776256
1539.56+123208568+126146568+154686304+191559984+217802384+228666672+228074480
1535.06+219142032+204543232+191542240+189111776+198200480+210487632+218610640
1530.56+222126944+222701760+219834112+214159104+209259984+206276592+201751472
1526.06+194516992+189711488+191822272+197087600+196509312+184309104+162872816
1521.56+142796832+137409216+151935520+177034784+196155248+199541840+191515968
1517.06+185086128+188269200+197815760+207230544+213880448+216432704+213385344
1512.56+207412496+204617584+206324064+207479504+204402768+197332000+185169568
1508.06+164940112+138497968+115885256+109779800+125876688+157588672+190452832
1503.56+212720480+222147056+224130464+224897936+225979120+224224608+217619936
1499.06+210355264+208082800+208006816+202061856+191963824+191097200+205940240
1494.56+225986768+238949952+243744160+244289904+240652112+231993120+222723072
1490.06+219828160+225232176+233964320+240014064+242634528+246262368+254147712
1485.56+263978608+271541792+276071360+279438752+282352192+284327104+286127648
1481.06+289439328+294533184+300134336+305180544+308851488+309509536+306447072
1476.56+303042528+304443008+309995104+312109856+305607360+294930944+289945184
1472.06+296721216+314050560+335881824+354893024+366670720+372352160+376025280
1467.56+379540128+380985824+377481760+369211168+362142688+364605568+377514624
1463.06+391896512+400030496+403168704+405016384+404455968+399389216+390608224
1458.56+376970624+355217952+331220064+322947936+341164800+374169888+402532416
1454.06+418264672+424526336+426282336+426243136+426213408+427385920+428825568
1449.56+427873536+423308800+417764512+415865664+419335424+425113024+429122272
1445.06+430372064+430474656+430588032+430400480+429660000+428934112+428381984
1440.56+427345984+425761504+423533888+417204000+401380672+377788896+359953024
1436.06+361017024+376984448+391867520+396599872+394189056+390432576+386782336
1431.57+381924032+375138336+367370784+361362080+359525120+360424544+360104544
1427.07+357324320+353811840+349712224+343406272+335674336+329554592+326426880
1422.57+325559200+325064768+319983936+304321088+280395168+262167088+261640496
1418.07+274408288+287070432+293265440+295384288+296428416+296595040+295723616
1413.57+294325376+292546400+290400192+288412736+286928928+285669408+284480960
1409.07+283663648+283362304+283177760+282228928+279457472+274720128+269970048
1404.57+268163600+270040864+273049888+274442816+273945472+272048896+267514272
1400.07+259371216+250474416+245719040+246394640+249035264+249549936+245831776
1395.57+237931696+229055008+224888800+228161168+235035952+239664080+240211216
1391.07+238592752+236674592+234313312+229669584+221268320+211344544+205796816
1386.57+207923920+214053696+218438272+219671392+219663648+219433296+218778416
1382.07+217884752+216920144+215569808+213993312+212830400+212129008+211565872
1377.57+211175776+210720544+209243936+206194192+202287024+199048064+198075760
1373.07+200076096+203781840+206817392+208147712+208413248+207995920+206733504
1368.57+205445728+205429712+206448784+207203952+207247632+206519984+204080592
1364.07+199549968+194935472+192836608+193404224+194926768+196640720+199050912
1359.57+201981712+204136192+204684496+204128480+203389568+202823136+202377856
1355.07+202094752+202032736+202036192+201909296+201654464+201375664+201131136
1350.57+200983472+200975184+200987088+200816640+200443552+200025584+199673568
1346.07+199420336+199378704+199721664+200429696+201116640+201148944+200025584
1341.57+197734096+194828960+192201952+190708544+190711696+191808768+193134224
1337.07+194093776+194717200+195283328+195874560+196379840+196680000+196687232
1332.57+196396704+195961552+195578704+195302736+195125344+195101712+195217696
1328.07+195281504+195158464+194942848+194767600+194643488+194598656+194675536
1323.57+194712224+194453968+193930608+193346496+192634736+191612272+190556144
1319.07+190037536+190110528+190220704+190005552+189677888+189516704+189419744
1314.57+189134160+188662688+188315840+188423840+188992640+189646976+190005552
1310.07+190011872+189777408+189332976+188825200+188662992+189022672+189399472
1305.57+189173328+188546128+188359056+188936816+189650272+189806816+189502304
1301.07+189289456+189392112+189642768+189938944+190311712+190636160+190696528
1296.57+190531040+190424160+190580608+190991616+191536112+192028848+192311952
1292.07+192453200+192690976+193065072+193334464+193381648+193442848+193769280
1287.57+194289264+194743536+194954432+194917728+194807008+194930064+195463440
1283.07+196248720+197000848+197600064+198038256+198293136+198463536+198789312
1278.57+199325824+199851168+200293520+200953904+202062144+203359648+204327968
1274.07+204696560+204633744+204587040+204964896+205831424+206886208+207769184
1269.57+208348016+208774608+209391376+210482624+211974144+213468128+214698288
1265.07+215765472+216853024+217973760+219093056+220268576+221593824+223195104
1260.57+225222256+227648160+230166224+232446528+234390432+236104416+237783168
1256.07+239609632+241578576+243527232+245489328+247795216+250605248+253580784
1251.57+256266960+258585472+260780592+263087136+265595776+268286576+271067776
1247.08+273863296+276672352+279509600+282412320+285535808+289070016+292936352
1242.58+296727680+300121408+303281280+306708160+310693280+315039584+319353536
1238.08+323500576+327642624+331898208+336134720+340158176+344026208+348063040
1233.58+352538336+357372928+362213056+366771296+371028352+375134784+379255776
1229.08+383508544+387919104+392353280+396577056+400459136+404132928+407936576
1224.58+412154432+416748928+421365120+425606496+429302016+432557568+435631136
1220.08+438746912+441956032+445155168+448224384+451076512+453626528+455836160
1215.58+457760064+459446112+460873344+462053856+463099456+464103232+465109824
1211.08+466164032+467171872+467782816+467716256+467168768+466622272+466264608
1206.58+465800672+464828448+463268448+461433312+459715584+458182304+456539424
1202.08+454519936+452165184+449667488+447076672+444253376+441096288+437777920
1197.58+434638592+431746272+428710944+425180160+421334560+417600736+414114080
1193.08+410767968+407552352+404496800+401482912+398364576+395117216+391808416
1188.58+388603520+385740416+383264480+380897440+378365024+375705824+373145760
1184.08+370872416+368971680+367374848+365914144+364579296+363549088+362829920
1179.58+362124224+361215808+360246464+359485696+359001120+358610784+358103136
1175.08+357502432+357046528+356841344+356727488+356632608+356731136+357093952
1170.58+357541856+357965760+358424992+358929312+359509792+360295424+361141632
1166.08+361598880+361673216+362049728+363118144+364439520+365540448+366524416
1161.58+367606912+368765888+370024288+371441472+372789632+373824832+374740384
1157.08+375852384+377101280+378312064+379612448+381193472+382920224+384520320
1152.58+385976096+387603616+389842016+392928448+396651360+400459968+403929824
1148.08+407080736+410252096+413742912+417569920+421584896+425774144+430260672
1143.58+434979744+439682048+444370272+449393504+454949024+460826912+466738464
1139.08+472576192+478334528+484125056+490220544+496771584+503597344+510515616
1134.58+517636768+525092032+532779968+540584256+548507584+556472064+564413248
1130.08+572660416+581718528+591454400+600996864+609742400+618113088+626969024
1125.58+636517568+646161408+655338880+664161280+673167552+682720064+692776768
1121.08+703090368+713452224+723784256+734016768+743967104+753526208+763007296
1116.58+772932608+783310400+793480832+802922368+811793856+820455936+828941760
1112.08+837232064+845572864+854217344+863117120+872001920+880482304+888216832
1107.58+895372352+902634240+910327360+917917696+924883840+931556160+938506880
1103.08+945594752+952201088+958038016+963295360+968366592+973649024+979249152
1098.58+984803904+989958336+994888896+999960704+1005124352+1010080832
1094.73+1014741696+1019162432+1023345024+1027408960+1031574784+1035800064
1090.87+1039806336+1043583360+1047463744+1051572096+1055549952+1058937792
1087.01+1061605760+1063719232+1065478784+1067055552+1068711488+1070638336
1083.16+1072531712+1073667136+1073741824+1073324992+1073084608+1072892864
1079.30+1072124544+1070457088+1067977408+1064886080+1061440320+1057840896
1075.44+1054024512+1049879424+1045488512+1040674048+1034700672+1027191680
1071.58+1018938496+1011056576+1003648320+995971520+987512320+978244416
1067.73+968206528+957439424+946201088+934906368+923830784+912858752+901514304
1063.23+889481408+877124480+865095872+853492096+841914880+830223168+818524288
1058.73+806611008+794251392+781872768+770047296+758408128+746034240+732931840
1054.23+720265280+708933120+698585728+688306816+677711104+667023680+656400896
1049.73+645659584+634696768+623817024+613348800+603159808+592828160+582277184
1045.23+571956608+562348288+553425920+544649408+535540800+526288384+517615680
1040.73+509868480+502529088+494937952+487147904+479613152+472417280+465396128
1036.23+458665664+452374272+446216288+439832192+433465504+427653184+422484128
1031.73+417676064+413096960+408712736+404311776+399810304+395614976+392189312
1027.23+389367552+386501824+383204768+379717024+376653344+374521728+373293088
1022.73+372304384+370792384+368653504+366518880+365041824+364359360+364201280
1018.23+364212480+364156608+364070688+364238496+364889824+366020896+367548544
1013.73+369409728+371461632+373574976+375803936+378177312+380551584+383065728
1009.23+386406720+391059328+396641216+402539232+408753280+415577760+422894656
1004.73+430391392+438099456+446269440+455043200+464500448+474643488+485201856
1000.23+495771520+506193376+516565664+527022752+537673408+548507008+559280960
995.73+569834112+580467840+591528448+602691264+613217728+622836480+631829440
991.23+640265792+647659264+653468800+657585152+660251584+661655104+661727936
986.73+660287936+657219264+652522368+646396224+639267456+631452224+622860672
982.23+613407552+603525440+593708992+583785216+573291648+562303680+551230912
977.73+540174016+529106496+518217408+507524928+496749472+485982784+475770464
973.23+466201728+456745376+447237984+438187168+429908384+422160000+414717088
968.73+407610080+400783328+394104096+387666688+381684640+376243360+371412256
964.23+367290912+363715680+360205280+356455008+352725120+349600320+347359744
959.73+345607328+343636576+341206912+338820288+337119904+336242784+335810688
955.23+335315168+334463520+333394784+332516512+331965728+331469120+330911232
950.73+330587872+330659360+330851552+330950752+331050016+331105376+330813408
946.23+330184576+329752128+329957632+330674176+331466048+332058560+332433824
941.73+332665152+332844416+333151296+333754432+334503168+334966944+334999392
937.23+334996864+335307360+335783488+336208128+336630240+336989920+337091648
932.74+337249024+338151808+339739072+341001472+341186400+340502976+339562592
928.24+338864000+338741536+339121376+339509184+339759872+340370048+341490048
923.74+342382656+342443200+342029632+341752512+341658336+341526432+341292000
919.24+340884256+340220768+339482112+338940032+338635392+338519392+338574144
914.74+338560992+338145600+337448512+336956320+336860704+337005152+337240064
910.24+337278272+336622880+335293472+334093344+333584480+333348928+332766464
905.74+331860864+331018880+330467648+330232544+330108000+329696960+328914432
901.24+328160864+327677344+327245888+326807904+326661888+326790208+326757760
896.74+326441888+326130144+325829728+325204640+324218144+323245376+322562304
892.24+322085024+321518112+320591904+319367808+318326624+317912896+318071520
887.74+318365664+318353920+317791840+316853024+316120960+315931392+315832640
883.24+315206880+314249184+313758848+314057376+314647040+314874048+314549632
878.74+313964096+313525312+313356544+313228800+312951296+312744128+312966816
874.24+313524544+313802560+313326944+312347328+311596928+311493952+311769536
869.74+311924896+311785664+311462016+311043264+310623712+310484736+310933536
865.24+311890240+312771008+312909536+312183776+311164768+310548448+310500416
860.74+310686976+310852928+311150048+311930592+313281056+314723872+315426048
856.24+314881024+313300384+311234816+309122624+307492256+307207840+308806976
851.74+311506624+313535936+313880288+313377952+313394240+313729408+312991648
847.24+311004384+309269920+308767904+308841216+308599296+307682528+305725856
842.74+303125120+301999328+304153280+308460160+312391840+315078560+316647264
838.24+316202464+313234816+309645440+307895904+308016704+308153184+307155584
833.74+305372992+303813952+303298144+303642016+303356608+300928800+296710528
829.24+292885184+291342016+291853920+292445984+291529728+289544928+288172480
824.74+287992736+287974240+287491680+287304448+287663424+287104864+284639328
820.24+281653216+279968480+279392256+278771680+277986048+277324896+276408064
815.74+275226176+274768512+275361984+275982688+276086144+276207392+276138816
811.24+274666848+271980736+270280032+271092160+273355328+274741888+273956672
806.74+271587488+269425152+268961984+270292032+272532288+275019872+277338784
802.24+278545568+277645984+275197216+273468320
##END=
