##TITLE=octarelline 6 front
##JCAMP-DX=4.24
##DATA TYPE=INFRARED SPECTRUM
##DATE=31/1/2005
##TIME=17:8:40
##SAMPLING PROCEDURE=film
##ORIGIN=Vincent
##DATA PROCESSING=no operation
##XUNITS=1/CM
##YUNITS=ABSORBANCE
##RESOLUTION=2
##FIRSTX=4000.283
##LASTX=800.31372
##DELTAX=-0.64282227
##MAXY=0.2367525
##MINY=-0.0051144473
##XFACTOR=1
##YFACTOR=2.2049294e-010
##NPOINTS=4979
##FIRSTY=0.007531241
##XYDATA=(X++(Y..Y))
4000.28+34156381+33900524+33682924+33670380+33613176+33189042+32553484+32191384
3995.14+32206662+32178972+31861692+31570942+31647772+31909536+31952374+31736054
3990.00+31616992+31919082+32537608+32961488+32815844+32378154+32226708+32398204
3984.86+32413602+32109646+31850834+31909658+32202726+32573176+32829216+32684780
3979.71+32156304+31726274+31710882+31832580+31799050+31827452+32206184+32699820
3974.57+32800088+32408470+31983520+31988650+32346886+32603016+32570428+32525074
3969.43+32698268+32964830+33166238+33315722+33334946+32994078+32307622+31678552
3964.28+31459400+31507954+31333910+30741284+30197712+30324682+31043956+31665548
3959.14+31865984+32006308+32379112+32755088+32842344+32659474+32315742+31855964
3954.00+31405602+31142116+31093692+31085938+30857914+30287958+29631766+29352780
3948.86+29551794+29827110+29895170+29975510+30372606+30950098+31215708+30764178
3943.71+29678602+28598152+28239758+28727036+29537734+30113312+30319434+30390728
3938.57+30679516+31350610+32153322+32600152+32504188+32157258+31835202+31346436
3933.43+30329330+28980794+28139482+28343492+29067052+29345992+29037264+28939926
3928.29+29684680+30948430+31824468+31688930+30673196+29445256+28610774+28428532
3923.14+28989966+30156940+31230140+31378766+30634562+29829612+29371612+28774092
3918.00+27594960+26258524+25719752+26529332+28283466+30031534+31286554+32269794
3912.86+33072516+33354290+33121464+32879710+32776930+32571506+32398204+32440336
3907.72+32179928+31109792+29482796+27366384+24241722+20562698+17989696+17008594
3902.57+16385219+15758370+16281164+18017304+19337488+19651812+20403618+22723588
3897.43+25976808+28993778+31162630+32256304+32435204+32286974+31912878+30288194
3892.29+26577286+22077268+19810830+21519108+25768048+29755594+31957266+31958696
3887.15+29095646+23419658+17646144+15705589+18571390+23462550+27442930+29608404
3882.00+29862034+27960972+24702576+22477646+23235760+26403084+29834738+32273012
3876.86+33848452+34546076+33542602+30588296+27198182+25632214+26660228+28500478
3871.72+27968000+23102238+15440525+9615637+9608795+15166860+22552576+27903220
3866.58+29161774+26387378+21883638+19257936+20473844+23808784+26076976+26500298
3861.43+27022854+29098028+31880306+33877716+34583352+34152560+33100212+32062032
3856.29+29761558+22160496+6961219-10970983-22319090-23195514-17561596-9200049
3851.15+1645937+13826177+23877468+29859770+32882100+34617648+35718144+36421936
3846.01+36625732+35491856+32566252+29087662+27085222+27157712+27851900+27495430
3840.86+26152162+24806956+22671690+17449632+9639232+4390736+6032105+12257452
3835.72+17642828+20619524+23417996+26953466+29190846+28494994+26144906+24958544
3830.58+26425096+29627118+32574964+33975300+33684716+32255588+30767400+30519260
3825.44+31873150+33647452+34273568+32886280+28929084+22232330+14624375+9956378
3820.29+10799399+16029277+22494984+27076058+26858850+20503976+11112009+5557587
3815.15+8221312+16586357+25101938+30863278+34085424+35713484+36348628+36506012
3810.01+36514620+35933104+33379966+27668656+20009120+14599419+15119302+20541344
3804.86+26562292+30217618+30548114+26345854+17100962+6550084+1674490+5762452
3799.72+14964919+23362754+28224394+29755594+29068242+27783554+27734500+29487204
3794.58+31854412+33493764+34242748+34649192+35026200+35335624+35470692+35404236
3789.44+35283156+35320688+35447388+35321524+34783376+33990704+33146296+32483422
3784.29+32337700+32791014+33480984+34041712+34236416+33524812+31428390+28649966
3779.15+26862182+26990478+28521558+30572680+32640258+34315144+35240964+35414632
3774.01+35103644+34672252+34479292+34207628+32520064+28554552+23805218+21332418
3768.87+22682736+26335504+29299638+29632122+27743784+25868558+25995960+28077196
3763.72+30518186+32101412+32737058+32531048+31052546+28096252+24885898+23522904
3758.58+24652882+26563364+27421262+27415430+27809274+28913240+29596964+27598530
3753.44+20518094+8963815-1357385-4843382-3727690-4674968-8333041-8418613
3748.30-1252498+9380172+17375722+18293974+9527982-6823923-20866656-21618322
3743.15-9356626+5796245+16296316+21659522+24255986+25737358+26601442+26214144
3738.01+23341846+17927734+11794423+7140544+5323667+6811363+10405047+12917691
3732.87+12013639+9441160+9544146+14154996+20774946+26045450+28814596+29578134
3727.73+28871898+27119266+25131668+23894106+23936768+24959376+25888542+25630190
3722.58+24328490+23536332+24462328+26414626+27772958+27993246+27822014+28056120
3717.44+28920150+30168744+31101920+31006390+29863942+27754026+23694476+16961462
3712.30+9849358+6625118+8452746+12020962+14400965+16293830+19484150+23683068
3707.16+27326028+29649402+30792202+31086298+30926484+30450464+29135442+26511124
3702.01+23337568+21371584+21784398+24148542+27006072+29141520+30246708+30623828
3696.87+30641716+30552646+30384528+29908402+29142114+28529658+27806654+25574532
3691.73+21485162+17623042+15339716+12212208+5705935-1199466-2056720+4914169
3686.59+14815045+22507690+26768998+28556934+28822580+28472366+28403994+28826392
3681.44+29240656+29071936+28042306+26421644+25009314+23942352+21373362+14689782
3676.30+4003429-6093743-9591236-4388232+6151872+16174984+20691894+17825258
3671.16+10136447+3293369+1454777+4233075+9209844+15152189+21285778+26064720
3666.02+28556458+29492924+29919964+30117126+30268886+30703244+31269264+31586930
3660.87+31684396+31690122+31593728+31504854+30916346+28152462+22568966+16938610
3655.73+15308243+18492108+23772064+28209150+30083030+28479154+23588728+16763718
3650.59+9431014+2852665-1172480-1266108+1813850+6193914+11117676+16651000
3645.45+22180682+26736508+29982306+31925528+32515406+32167878+31821482+31987574
3640.30+32343426+32376366+31943186+31288344+30911816+31232884+32105232+32768574
3635.16+32464682+31148318+29717098+29364698+30321818+31190898+29694814+24203570
3630.02+15121668+5572892+198652+1735356+8656497+17037368+24002008+28766946
3624.87+31691314+33453638+34614064+35241560+35010544+33604340+30815458+26794584
3619.73+22710642+20397804+20717402+22934878+25908766+28815074+30836090+31470374
3614.59+31097268+30208682+28689992+26972032+26658562+28265362+29581352+28295018
3609.45+25242966+23351348+23991074+26102790+28461764+30984442+33838064+36561384
3604.30+38401100+38961064+38361472+37112576+35984640+35606128+35879780+36043584
3599.16+35707512+35447268+35839968+36385340+36169496+35205104+34326612+34125084
3594.02+34637600+35681084+36910048+37954020+38721592+39058900+38232068+35694712
3588.88+32284112+29670142+28653302+28915026+30209394+32600390+35629088+38286656
3583.73+39976176+40927676+41628052+42199016+42487260+42543528+42700320+43061472
3578.59+43295840+43212556+43150632+43435780+43844236+44024312+44104152+44492944
3573.45+45329012+46320608+46953048+46856140+46111000+45022936+43523152+41242468
3568.31+38330828+35713724+34354564+34650268+36469892+39204404+41868964+43737528
3563.16+44883008+45762264+46476864+46835580+46953768+47303920+48123980+49051504
3558.02+49555640+49592844+49577072+49725884+49794272+49522052+48948960+48194120
3552.88+47353104+46746980+46860352+47821196+49214240+50447948+51063756+50811004
3547.74+49781988+48529332+47832628+48167896+49336420+50687040+51800060+52822768
3542.59+53959188+54935096+55377348+55481676+55789384+56413032+56939000+57023104
3537.45+56760640+56509076+56546652+56860568+57262400+57709284+58310928+58955096
3532.31+59283672+59213860+59078492+59075224+58988004+58605416+58042120+57503660
3527.17+57084132+56875552+56971864+57328632+57864272+58623428+59581080+60393328
3522.02+60668136+60504336+60482176+61015404+61902736+62601164+62799448+62599588
3516.88+62319536+62322812+62934716+64189420+65580128+66349556+66202028+65566292
3511.74+65028552+64725108+64539976+64639332+65338724+66481184+67430024+67795864
3506.60+67819552+67919080+68219496+68612096+69015120+69409104+69775552+70054720
3501.45+70173816+70201808+70442104+71102416+71907488+72339320+72280128+72096856
3496.31+72097816+72233360+72382432+72650888+73227016+74028568+74652544+74780088
3491.17+74597792+74598032+74929592+75256704+75313536+75290240+75516640+76040040
3486.03+76692840+77336952+77886976+78204792+78131864+77695840+77268208+77325832
3480.88+77936072+78658288+79115304+79416704+79832216+80327416+80692352+80880848
3475.74+81019192+81285400+81865176+82724488+83400568+83448208+83158072+83353296
3470.60+84336520+85485760+86080008+86095584+85969512+85995992+86218848+86548072
3465.45+86735048+86530656+86084064+85859376+85990232+86106624+85975152+85906480
3460.31+86265704+86939200+87526896+87851552+88046744+88264920+88463456+88521664
3455.17+88533696+88779560+89270872+89589928+89460176+89191272+89206384+89451576
3450.03+89634768+89692640+89636488+89352192+88963912+88998048+89758736+90837880
3444.88+91588584+91849088+91957336+92249760+92740448+93228456+93548512+93655248
3439.74+93545680+93328400+93291832+93570312+93784152+93502584+93018224+93088256
3434.60+93888816+94796392+95214288+95092800+94708680+94442008+94591160+95040808
3429.46+95330248+95303864+95308184+95592728+95934616+95980352+95577304+94852312
3424.31+94257888+94271544+94738488+94955808+94664456+94398032+94612360+95107224
3419.17+95519760+95766736+95830216+95647440+95324568+95039208+94816344+94664208
3414.03+94719648+95041184+95495120+95957408+96321312+96392696+96129376+95812592
3408.89+95665184+95556864+95380640+95340832+95557968+95764400+95698336+95449640
3403.74+95251864+95188536+95229312+95328392+95475648+95736672+96105704+96268680
3398.60+95774008+94576016+93235344+92506904+92754848+93623616+94243112+94035848
3393.46+93396352+93214664+93697728+94156408+94054560+93672128+93523152+93674088
3388.32+93893384+94005304+93861984+93372592+92754976+92424216+92490784+92681144
3383.17+92772080+92778232+92719784+92546896+92312496+92196856+92362824+92861184
3378.03+93509976+93867280+93646016+93179208+93075328+93410992+93729488+93787600
3372.89+93786736+93881184+94006288+94151720+94334120+94349512+93977968+93343040
3367.75+92750552+92318648+91970368+91627680+91252472+90878328+90637984+90624208
3362.60+90798896+91136760+91663848+92221704+92502464+92365400+91852032+91004472
3357.46+90031424+89445432+89541880+89932616+90098648+90070256+90098280+90074560
3352.32+89864912+89816368+90324048+91151904+91669008+91569384+91061032+90580688
3347.18+90517528+90926032+91329336+91083896+90093120+88968936+88397408+88488632
3342.03+88868352+89228608+89575056+89968616+90270832+90316424+90157024+89941344
3336.89+89700248+89448632+89294584+89263136+89239912+89286456+89671016+90358712
3331.75+90835048+90701656+90131208+89564864+89288800+89409688+89844144+90192408
3326.61+90063488+89567928+89138448+88896472+88655272+88468128+88627752+89091528
3321.46+89420624+89373200+89152576+89020280+89050128+89309816+89843280+90350104
3316.32+90294064+89593488+88871544+88749224+89146800+89567808+89778280+89843032
3311.18+89732088+89346048+88851528+88590560+88703784+89108968+89729128+90468840
3306.03+91136272+91568656+91660896+91210176+90137232+88945352+88442712+88822048
3300.89+89509688+89991608+90247112+90303520+90053168+89679248+89644592+90036448
3295.75+90364240+90143752+89369512+88446024+87916256+88107880+88777592+89270744
3290.61+89229832+88945608+88884064+89103312+89253056+89006528+88440752+87980080
3285.46+87860504+87767960+87340344+86837120+86754048+86907544+86619352+85822224
3280.32+85255512+85438432+86021992+86305448+85995992+85319760+84658952+84183488
3275.18+83794248+83419432+83167144+83026304+82732936+82243360+81952432+82020360
3270.04+81932968+81276224+80498504+80268104+80427688+80279720+79630624+78853304
3264.89+78116976+77280296+76470216+76096296+76181464+76195984+75736000+75005696
3259.75+74464776+74220696+73945200+73319752+72446504+71778048+71626240+71808376
3254.61+71867432+71582400+71123112+70730248+70428224+70064704+69567688+69094160
3249.47+68889528+68986064+69093664+68890624+68379688+67878488+67704608+67896472
3244.32+68171856+68164688+67774832+67225328+66710820+66143872+65374408+64495580
3239.18+63781564+63420836+63388708+63454292+63359980+63139572+63118360+63399984
3234.04+63577368+63233648+62457316+61601224+60811004+60083080+59515256+59210236
3228.90+59181920+59515256+60292000+61168352+61432256+60771176+59699432+58961512
3223.75+58759628+58772680+58675320+58358816+57855204+57350996+57113988+57175504
3218.61+57271824+57268204+57369000+57692724+57981308+57994972+57829576+57601452
3213.47+57203420+56652856+56226148+56005092+55727300+55321560+55159408+55479624
3208.33+55932020+55959560+55446052+54810756+54540856+54685580+54827536+54611348
3203.18+54212348+54052824+54176876+54231056+54001660+53638616+53371172+53315324
3198.04+53504952+53819472+53946396+53692544+53277932+53087600+53194944+53333784
3192.90+53255256+52887400+52278496+51644816+51404636+51832716+52635860+53107744
3187.76+52831812+52091148+51512252+51429100+51657352+51808372+51699056+51445972
3182.61+51257748+51194972+51173048+51177620+51345112+51746900+52166256+52233648
3177.47+51796076+51066536+50427468+50199360+50525512+51280644+52068612+52489360
3172.33+52469348+52228700+51998456+51892264+51947588+52088260+52164688+52188804
3167.19+52389772+52882580+53435824+53731152+53715104+53611956+53710036+54131744
3162.04+54675440+54916020+54627520+54062716+53682896+53720900+54060788+54375392
3156.90+54323132+53794368+53063604+52612348+52734256+53333900+54030012+54448412
3151.76+54504168+54386860+54197020+53802212+53182048+52660340+52527576+52617292
3146.61+52537108+52167336+51721952+51420184+51294860+51247508+51173528+51021116
3141.47+50762820+50355808+49838220+49436336+49388064+49618968+49720828+49363504
3136.33+48678296+48160912+48176556+48592384+48940772+48916948+48588772+48160196
3131.19+47749508+47470356+47453520+47606384+47586896+47208196+46724380+46527952
3126.04+46692040+46961700+47065228+46882832+46467488+46091648+46079628+46426620
3120.90+46765016+46890284+46997656+47189436+47165868+46748544+46286952+46127944
3115.76+46094532+45931936+45829672+46025312+46271448+46141280+45621200+45052484
3110.62+44707900+44630560+44702972+44751740+44682440+44488616+44101872+43469860
3105.47+42828820+42608304+42941604+43497104+43839320+43778216+43434816+43149552
3100.33+43230316+43622412+43935360+43860088+43455940+43066156+43039516+43431696
3095.19+43889256+44029840+43922752+43892620+43955044+43866928+43656864+43571160
3090.05+43588928+43502384+43392688+43514384+43796704+43893576+43659744+43239556
3084.90+42820420+42539924+42479104+42572316+42687484+42828100+43008440+42978440
3079.76+42493136+41841260+41677936+42216768+42992840+43485224+43570080+43333760
3074.62+42871768+42396932+42187024+42262588+42354352+42246992+42006284+41887792
3069.48+42098032+42550600+42849340+42735716+42446836+42301928+42130772+41603716
3064.33+40912212+40526044+40508904+40641696+40937504+41406720+41710068+41644960
3059.19+41578896+41813320+41983492+41655276+41063724+40717320+40662432+40573264
3054.05+40276072+39869184+39547188+39458552+39574256+39696804+39720160+39768556
3048.91+39951608+40128452+40051412+39659068+39164284+38872576+38887064+39028604
3043.76+39164164+39452204+40046980+40719836+41073796+40967596+40500524+39828220
3038.62+39209672+38910416+38833060+38581384+38070476+37728664+37928528+38539368
3033.48+39147160+39490892+39625408+39795992+40108204+40352284+40330476+40251148
3028.34+40413516+40648044+40536472+40102812+39790840+39796232+39891232+39912556
3023.19+40023016+40390028+40867744+41132052+41057012+40839216+40717680+40695632
3018.05+40692028+40798704+41115152+41477332+41660788+41740292+41913332+42109900
3012.91+42093596+41866808+41679136+41680212+41776624+41802048+41691004+41445804
3007.77+41030404+40462652+40041948+40217480+41012656+41826272+42077876+41842820
3002.62+41593876+41595076+41820392+42192780+42628220+43026196+43389448+43804628
2997.48+44275124+44726396+45126120+45452876+45617956+45580108+45455756+45443024
2992.34+45665412+46094532+46558484+46903752+47140376+47366332+47624536+47935232
2987.20+48321532+48710072+49010100+49366872+50006436+50781612+51266784+51361136
2982.05+51435252+51827896+52539276+53364664+54058856+54453960+54623904+54812204
2976.91+55146372+55582628+56108608+56706628+57228560+57599156+58064368+58916388
2971.77+60054032+61070380+61727684+62182496+62712912+63333056+63780340+63943944
2966.62+64127680+64676696+65476112+66114984+66430416+66585128+66715308+66828868
2961.48+66973276+67215000+67537184+67922480+68395488+68816584+68842960+68344808
2956.34+67682376+67306832+67204304+67029024+66671472+66347488+66160020+65953396
2951.20+65638028+65301468+64957692+64526628+64127196+64039264+64313988+64670992
2946.05+64852488+64879064+64931244+65078432+65195524+65136312+64992160+65061800
2940.91+65497592+66090216+66517724+66689928+66787084+67057084+67592952+68251464
2935.77+68806248+69181096+69427352+69513936+69344408+69018776+68865328+69128080
2930.63+69661944+70015920+69886848+69503240+69377848+69654168+70023456+70262760
2925.48+70397568+70343304+69968720+69520256+69403520+69581920+69697352+69599432
2920.34+69271568+68561648+67473760+66389620+65625884+65151720+64896052+64860384
2915.20+64860868+64608516+64060732+63386276+62747572+62299056+62074540+61818296
2910.06+61281824+60624432+60091068+59547080+58835584+58252280+58109836+58128824
2904.91+57802128+57112052+56450724+56061020+55886364+55828872+55873320+55957624
2899.77+55902668+55625984+55380364+55536740+56062592+56477908+56404336+55930688
2894.63+55390992+54985432+54651904+54208008+53640064+53210024+53097736+53121256
2889.49+53081212+53111724+53352472+53611836+53698940+53705940+53681204+53479976
2884.34+53135604+52885240+52768136+52689760+52777184+53155028+53570336+53726692
2879.20+53714020+53697732+53585900+53341628+53215448+53367072+53600496+53669020
2874.06+53584572+53534628+53673244+53955688+54093852+53775912+52995224+52095976
2868.92+51480080+51282332+51241964+50963276+50418072+49992224+49909020+49933344
2863.77+49839180+49732384+49698552+49596572+49419004+49362180+49400220+49260700
2858.63+48910444+48595868+48406236+48217580+48059500+48170420+48659888+49319200
2853.49+49787528+49835692+49568644+49354596+49454872+49766096+49950924+49765136
2848.35+49222544+48539192+47953520+47584252+47432352+47404932+47266280+46713316
2843.20+45729460+44741168+44232980+44260596+44495460+44658180+44729520+44757984
2838.06+44639928+44243784+43721676+43423536+43398576+43286480+42905008+42582272
2832.92+42633740+42858572+42859296+42553480+42124300+41757556+41594240+41663664
2827.78+41761036+41640044+41335856+41102212+41095608+41269564+41503232+41735376
2822.63+42016232+42379540+42623420+42469264+42002080+41654428+41655512+41822072
2817.49+41940920+42008676+42080040+42183660+42349912+42481980+42368380+42016232
2812.35+41729496+41694604+41792332+41874120+41897024+41733340+41272076+40753160
2807.20+40626236+41009064+41570380+41944996+42027512+41887068+41649636+41482728
2802.06+41485848+41581044+41638608+41693884+41893304+42243996+42600988+42846216
2796.92+42905368+42660976+42133768+41651552+41506952+41544360+41419060+41132536
2791.78+40965432+41063964+41450836+42172752+43056076+43600448+43526992+43182792
2786.63+43060396+43173316+43199956+43025232+42852816+42892892+43137916+43424612
2781.49+43627456+43773056+43946640+44138852+44241024+44177272+43992976+43857084
2776.35+43945200+44253992+44583244+44805904+45041676+45448308+45986488+46488880
2771.21+46847484+47035648+47087712+47086272+47053688+46921304+46715360+46660544
2766.06+46929000+47429588+47946540+48367248+48686964+48931752+49161760+49468000
2760.92+49916968+50475164+50963884+51179912+51173888+51273528+51696644+52278852
2755.78+52738960+53014636+53185660+53289512+53378172+53589396+54041484+54736520
2750.64+55569828+56338132+56856340+57165472+57532792+58154816+58998164+59903832
2745.49+60682544+61178280+61454060+61812608+62445928+63206976+63918472+64683732
2740.35+65639840+66641472+67456872+68151440+69027768+70226504+71559032+72721296
2735.21+73613200+74432456+75468704+76782688+78143600+79322832+80398832+81659696
2730.07+83216128+84847936+86319544+87710520+89262152+90989600+92689136+94303696
2724.92+96026936+98000672+100121280+102203848+104176736+106092504+108068784
2720.42+110217640+112515392+114796048+116979912+119241792+121800248+124580488
2715.92+127256472+129669496+132063872+134780720+137800320+140785472+143594176
2711.42+146486208+149723696+153198368+156638224+159995872+163460880+167181600
2706.92+171093344+174932832+178440832+181662848+184966192+188624304+192515632
2702.42+196410512+200331808+204371120+208402768+212310144+216314352+220725376
2697.93+225451824+230058720+234298496+238344000+242479632+246737840+250942352
2693.43+255054432+259294032+263810672+268376992+272653056+276707104+280964000
2688.93+285604864+290328448+294834016+299246784+303834336+308534592+313063808
2684.43+317378272+321742464+326359744+331140768+335877760+340478368+345000224
2679.93+349558848+354200672+358812480+363208544+367360480+371491296+375878912
2675.43+380641120+385702400+390850912+395809824+400405408+404728128+409013216
2670.93+413353440+417637056+421813696+426064320+430619680+435493984+440472128
2666.43+445278880+449691456+453641760+457399360+461507168+466264352+471333216
2661.93+476120032+480479264+484759168+489223552+493782208+498237664+502516768
2657.43+506677056+510884992+515298240+519847072+524291616+528577920+532902624
2652.93+537378944+541867904+546199680+550375936+554567936+559020096+563835008
2648.43+568767424+573449664+577840256+582182656+586531392+590701376+594689728
2643.93+598768768+603117952+607637888+612130176+616464128+620647360+624833280
2639.43+629189952+633728576+638342464+642945152+647431488+651655616+655613376
2634.93+659524416+663629120+668019328+672637632+677269632+681652352+685815808
2630.43+690113024+694715200+699339776+703727872+708018368+712375168+716635648
2625.93+720637312+724520384+728451392+732390592+736340736+740468096+744768384
2621.43+748945024+752804672+756545664+760516160+764832960+769307648+773630080
2616.93+777633024+781446400+785341504+789395840+793442240+797345664+801155584
2612.43+804940160+808664192+812284672+815842304+819441536+823208704+827218432
2607.93+831338752+835265728+838850240+842288640+845856960+849559104+853224192
2603.43+856823360+860449984+864045632+867385984+870386560+873225792+876101760
2598.93+879048384+882033024+885102784+888340800+891754304+895224192+898479232
2594.43+901221888+903477120+905735360+908496896+911703936+914863040+917688256
2589.93+920358144+923125184+925962304+928689664+931294080+933929984+936631616
2585.43+939183616+941415104+943488064+945676096+947959680+950138688+952246080
2580.93+954517184+956984768+959429440+961683584+963747264+965694784+967661632
2576.43+969765760+971910272+973838528+975439488+976826048+978174976+979703552
2571.93+981619712+983828544+985871168+987407552+988578176+989740096+991089536
2567.43+992634688+994260672+995757056+997008448+998154176+999397120+1000750208
2562.93+1002119168+1003491456+1004892736+1006266304+1007524608+1008663744
2559.08+1009760448+1010844096+1011822400+1012647808+1013532608+1014774464
2555.22+1016307136+1017702080+1018677888+1019348928+1019974208+1020738752
2551.36+1021731136+1022835840+1023774336+1024466560+1025148032+1025988992
2547.50+1026892608+1027745088+1028530944+1029214720+1029878592+1030819264
2543.65+1032129600+1033417152+1034318656+1034973632+1035677568+1036460928
2539.79+1037271040+1038170880+1039135296+1040017152+1040788416+1041538368
2535.93+1042285568+1043014336+1043750848+1044465600+1045145024+1045967872
2532.08+1047063552+1048147968+1048846272+1049280896+1049875392+1050705792
2528.22+1051497600+1052165760+1052923264+1053908480+1054994240+1055929088
2524.36+1056546816+1056899328+1057260928+1057923328+1058903872+1059894272
2520.51+1060536768+1060771456+1060894848+1061240256+1061844992+1062545024
2516.65+1063297216+1064173376+1065078656+1065756800+1066139648+1066447680
2512.79+1066906176+1067533952+1068249664+1069016960+1069802560+1070501376
2508.94+1070973760+1071184768+1071263168+1071393600+1071662976+1072028480
2505.08+1072422272+1072794560+1073111168+1073366592+1073565504+1073688576
2501.22+1073724864+1073730304+1073741824+1073683136+1073479616+1073237760
2497.36+1073148416+1073221952+1073224704+1072916992+1072281408+1071516672
2493.51+1070823616+1070220096+1069625088+1069076544+1068682240+1068347456
2489.65+1067802176+1066964288+1066021952+1065115776+1064224768+1063416832
2485.79+1062841600+1062382016+1061648192+1060468864+1059101056+1057816128
2481.94+1056569920+1055208768+1053746112+1052269888+1050781632+1049299904
2478.08+1047961536+1046797952+1045530624+1043820224+1041706496+1039597696
2474.22+1037784064+1036131904+1034352832+1032390976+1030432384+1028646016
2470.37+1027052992+1025559424+1023982848+1022146496+1020036096+1017816640
2466.51+1015615680+1013382912+1011053888+1008730048+1006571520+1004588544
2462.65+1002669696+1000775232+998959808+997211520+995361792+993193920+990660736
2458.15+987995328+985559040+983508928+981647296+979684480+977565824+975420992
2453.65+973316608+971251520+969308992+967553216+965873152+964119616+962324928
2449.15+960577408+958803008+956902912+954979264+953215424+951605376+949995328
2444.65+948335872+946746880+945329024+943971136+942441152+940706624+939057280
2440.15+937756800+936683904+935543808+934284288+933050112+931863424+930639296
2435.65+929373248+928094784+926797760+925587776+924657920+923971840+923220672
2431.15+922201024+921013376+919852416+918805632+917859072+916968704+916132864
2426.65+915409344+914790208+914152384+913461376+912813120+912151360+911253888
2422.15+910183872+909333120+908820992+908295488+907531392+906775296+906284224
2417.65+905909952+905349376+904522944+903588032+902727104+901985152+901304512
2413.15+900714496+900328192+900051200+899566976+898776576+897949568+897274880
2408.66+896624128+895898560+895172480+894411776+893483904+892485056+891629120
2404.16+890846976+889912192+888856576+887876160+886938688+885855168+884616128
2399.66+883400640+882331712+881382528+880428992+879305600+877906816+876314624
2395.16+874749760+873374208+872137216+870833472+869325888+867700864+866148352
2390.66+864740480+863403584+862039808+860555392+858868800+857039232+855291264
2386.16+853741312+852203904+850418432+848419264+846509504+844882176+843401216
2381.66+841806080+839987648+837986880+835853056+833656064+831526208+829480832
2377.16+827307264+824814208+822102848+819428224+816918464+814555840+812253440
2372.66+809842176+807186944+804367744+801568576+798799424+795964544+793155328
2368.16+790583040+788240320+785849856+783188480+780345408+777625216+775190144
2363.66+772866304+770401856+767824576+765330048+762936896+760555328+758267776
2359.16+756169856+754081856+751786368+749396032+747165184+745124544+743176000
2354.66+741364352+739808896+738486592+737211392+735762688+734044736+732156096
2350.16+730192064+728033152+725501696+722680320+719808128+716950144+714001472
2345.66+710930944+707827456+704810368+701977216+699304064+696620352+693859968
2341.16+691192064+688721856+686267200+683653504+680985408+678462976+676158592
2336.66+674028096+671900608+669516224+666823744+664104448+661591232+659206528
2332.16+656848768+654602112+652491072+650365696+648149888+645920064+643702400
2327.66+641465728+639275648+637209600+635190144+633088640+630919488+628791680
2323.16+626726016+624626880+622441600+620302592+618380992+616567168+614503296
2318.66+612058880+609529024+607230720+605164864+603181568+601164224+598980096
2314.16+596594688+594269888+592288704+590514816+588565888+586322944+583963136
2309.66+581624448+579324480+577067008+574823232+572542144+570274944+568108352
2305.16+565973888+563714496+561314112+558897088+556554368+554320192+552209792
2300.66+550161536+548048000+545817280+543542976+541302784+539090496+536847968
2296.16+534537152+532185728+529864768+527606464+525351712+523024896+520628864
2291.66+518228800+515891008+513670784+511603168+509662720+507733536+505679296
2287.16+503486592+501294176+499207808+497142976+494970464+492754496+490666624
2282.66+488708576+486722720+484629728+482456288+480213952+477952032+475813536
2278.16+473842592+471875136+469778944+467627456+465504064+463359648+461180608
2273.66+459070208+457048448+455007840+452965408+451096576+449435520+447744544
2269.16+445796640+443631040+441458880+439414720+437485376+435630464+433861120
2264.66+432172480+430446112+428534016+426433952+424305024+422287904+420388064
2260.16+418540864+416687008+414792832+412888672+411061792+409312640+407458784
2255.66+405338688+403082368+401010752+399264032+397677312+396038752+394320128
2251.16+392596320+390859808+389004448+386975872+384910496+383066432+381553024
2246.66+380168736+378617792+376859264+375074592+373340192+371561440+369734112
2242.16+367990976+366356288+364706272+363032800+361453568+359922496+358205952
2237.66+356233216+354227648+352422240+350835776+349368864+347923424+346395552
2233.16+344728576+342979648+341249856+339584896+338012992+336588640+335294048
2228.66+333986848+332523936+330890368+329182496+327542656+326069472+324691392
2224.17+323190272+321467904+319696128+318081440+316606880+315173760+313811008
2219.67+312561568+311285984+309822112+308229376+306673824+305188192+303725280
2215.17+302324000+301031872+299782336+298509792+297261152+296060640+294806560
2210.67+293428256+292001024+290587904+289128608+287593920+286116896+284841472
2206.17+283715232+282527008+281138112+279652416+278295872+277109664+275865728
2201.67+274414336+272962912+271799232+270854080+269807744+268532224+267158672
2197.17+265810592+264527968+263346000+262234272+261054768+259767344+258537936
2192.67+257502912+256573616+255580768+254471504+253279392+252048304+250830768
2188.17+249653648+248462528+247203760+245925648+244726768+243643248+242633792
2183.67+241631200+240576080+239463312+238351424+237294192+236286672+235317616
2179.17+234411952+233572416+232720016+231734384+230558608+229271040+228059440
2174.67+227077424+226292896+225520672+224604656+223514144+222326592+221191248
2170.17+220269616+219573392+218884464+217949760+216755344+215525472+214472592
2165.67+213622128+212855888+212059616+211208512+210338448+209443024+208488672
2161.17+207517024+206634496+205840608+205004032+204083952+203201936+202396688
2156.67+201497200+200399280+199282320+198359456+197576192+196761920+195946976
2152.17+195286224+194745728+194094064+193219088+192281728+191501360+190891664
2147.67+190278896+189530976+188696144+187919392+187278496+186716192+186096496
2143.17+185304496+184336224+183323040+182424896+181678416+180998384+180342256
2138.67+179766992+179284080+178781632+178158096+177428144+176633472+175758656
2134.17+174825840+173937040+173128800+172324336+171528656+170901536+170516672
2129.67+170183232+169654816+168918016+168159520+167512736+166940592+166316432
2125.17+165581664+164828912+164198432+163696624+163198128+162641232+162068432
2120.67+161490304+160859360+160215776+159694464+159345648+159046784+158597184
2116.17+157871760+156948000+156101216+155541728+155159232+154679936+154038976
2111.67+153417008+152956144+152637808+152379904+152059920+151527968+150778160
2107.17+150022528+149441760+148977232+148486880+147969824+147500944+147058288
2102.67+146575760+146081552+145646928+145238896+144742784+144134096+143540000
2098.17+143085360+142745408+142402864+141988320+141499952+140926464+140269440
2093.67+139638560+139189840+138934960+138695360+138311328+137821856+137357296
2089.17+136944832+136519872+136068592+135625328+135188448+134784864+134506912
2084.67+134339504+134067528+133534272+132868896+132275168+131754056+131221792
2080.17+130725288+130322128+129932824+129493200+129098296+128835584+128618376
2075.67+128302472+127830000+127228168+126583328+126036800+125671624+125414496
2071.17+125147488+124858536+124576368+124242464+123774352+123218616+122702776
2066.67+122231280+121688584+121099120+120722856+120699144+120748200+120469368
2062.17+119848312+119220088+118811288+118610400+118577736+118658664+118655664
2057.67+118377872+117855808+117249528+116659384+116168296+115837816+115573248
2053.17+115206504+114754976+114324080+113829824+113142344+112420560+111965432
2048.67+111799416+111713808+111611312+111512904+111349416+111019360+110568544
2044.17+110117584+109686200+109214832+108704872+108252216+107936456+107709152
2039.68+107462040+107208136+107044888+106894272+106537592+106019896+105674520
2035.18+105575800+105356688+104782104+104138608+103807672+103769184+103738368
2030.68+103524792+103136544+102734896+102517088+102457864+102272976+101802888
2026.18+101243056+100811512+100460616+100116088+99907224+99915872+99962552
2021.68+99858312+99653304+99460416+99216680+98785472+98145784+97404424+96745592
2016.53+96384936+96405400+96583064+96531784+96097936+95517168+95149480+95107096
2011.39+95172152+95035880+94607552+94089416+93736392+93582128+93485232+93366312
2006.25+93244936+93092808+92848752+92560920+92320120+92074072+91732720+91393520
2001.11+91221128+91140216+90919880+90548496+90241824+90091768+89977096+89831248
1995.96+89744864+89724832+89545928+88916120+87771640+86445040+85566440+85592064
1990.82+86294896+86918456+86960064+86614072+86355488+86383080+86605608+86873200
1985.68+86998096+86803248+86349104+85919464+85715296+85747664+85978704+86262632
1980.54+86234056+85631912+84705272+83997376+83754320+83801352+83898984+83957552
1975.39+83950704+83851096+83683264+83528200+83416976+83251032+82907896+82440080
1970.25+82026840+81645624+81010992+80024048+79084632+78724880+79083056+79880256
1965.11+80709968+81231568+81296912+81037056+80693952+80365808+80044464+79797984
1959.97+79708608+79712520+79690032+79637952+79606536+79523664+79232880+78705568
1954.82+78137728+77801232+77810880+78047952+78276624+78287856+78006904+77591672
1949.68+77340360+77364424+77420464+77186520+76615816+75963168+75566536+75569952
1944.54+75635704+75078264+73684976+72304608+72090032+73153904+74509032+75312928
1939.39+75585440+75689016+75709152+75560680+75292072+75051064+74949600+75041560
1934.25+75282440+75495776+75529816+75429664+75322696+75213152+75008504+74670960
1929.11+74246904+73838056+73578824+73517888+73552744+73602832+73656336+73461464
1923.97+72604720+71259312+70384672+70670368+71711328+72577680+72534808+71018312
1918.82+68059440+65223312+64810520+67239416+70372744+72105976+72380480+72245784
1913.68+72227760+72272088+72320936+72298032+72071760+71725944+71480264+71348304
1908.54+71226824+71192856+71379088+71683336+71846376+71724976+71414768+71172040
1903.40+71163400+71285496+71342336+71318608+71293400+71217200+71009432+70754832
1898.25+70615744+70650776+70762248+70721968+70385528+70006424+70042200+70535184
1893.11+71085616+71433760+71468208+70747528+68945944+66848656+65953880+66816964
1887.97+68516192+69908256+70658208+70966464+70989104+70788784+70520336+70423112
1882.83+70621576+70960384+71128712+71001280+70763712+70668304+70794264+71042048
1877.68+71235336+71258584+71179840+71148912+71168144+71104248+70898672+70651384
1872.54+70508904+70378104+69582048+67213176+63419384+60048344+59136920+60826144
1867.40+63546080+65921712+67606920+68698536+69329328+69758768+70240864+70766392
1862.26+71177760+71406368+71487312+71451048+71272832+70940424+70603080+70476536
1857.11+70506104+70427128+70276384+70407184+70879320+71318000+71467472+71419272
1851.97+71315680+71228040+71205040+71146240+70805088+70088064+69270352+68866184
1846.83+68941200+68111096+64140656+57108548+51415608+52017744+58338620+65107672
1841.69+68805512+70027352+70511696+70838432+70961480+70817752+70254360+69529744
1836.54+69416280+70110440+70869104+71097432+70912072+70628632+70370064+69736872
1831.40+67619312+63568392+59568980+58734464+61730596+66172772+69389040+70008984
1826.26+67858688+64430308+62646612+64126228+67325064+69749288+70768456+71235336
1821.12+71705616+72088080+72189152+71869872+71138936+70335392+69897560+69971032
1815.97+70412776+70974736+71393944+71529680+71374952+70817144+69678976+68217552
1810.83+67265408+67533904+68816336+70103016+70607696+70558176+70715400+71251040
1805.69+71653024+71632200+71278672+70413504+68811608+67026116+65866224+65148808
1800.55+64184928+63340212+63808484+65831632+68183040+69444736+69255152+68504040
1795.40+68295224+68072560+65385328+58993448+51845616+48953896+51891780+57665520
1790.26+63045872+67084544+69690896+70727688+70788904+70642872+69769592+67400504
1785.12+64761140+64147088+65871448+68043280+69014888+68461856+66901124+65556948
1779.97+65712800+67204672+68651848+69399736+69645416+69117136+67766824+66825824
1774.83+66407836+63355116+55062696+44755096+39596536+42943404+51378492+59305692
1769.69+63082356+62004748+58672536+57583196+60823476+65888560+69208824+70070904
1764.55+69850480+68879200+65833816+60371772+55288356+54642004+59136800+65044328
1759.40+68556312+69028984+67407056+64386280+61664208+61976040+65550632+69285552
1754.26+70991656+70975480+68634960+62154748+53461404+48882168+51548284+57212968
1749.12+60667168+61633928+62587836+64588864+67026476+69072512+70013728+69538264
1743.98+68365464+67945208+69171496+71025744+70562440+65760736+59137288+56516088
1738.83+60371288+66991132+71764184+73052056+69674488+59338964+42765108+27359598
1733.69+22926920+32183390+48187260+61609832+67850784+68372280+67678968+68871776
1728.55+71596640+73938376+75038872+75381368+75493584+75277072+74538776+73623920
1723.41+73223360+73685704+74695216+75490656+75185832+72718008+66554164+55549416
1718.26+41881192+32640138+34237252+43944844+52827104+56966064+59990008+65288368
1713.12+71147448+74910688+76668192+77218520+76663920+76012224+76652320+77769736
1707.98+77153912+74337120+70921560+68567736+67919448+68722968+70604904+73762008
1702.84+76916232+74544992+60690536+38304128+22272698+26425572+47217336+68633864
1697.69+77829568+71271728+55336656+44794852+51683868+71731792+90769280
1693.19+101277040+105613568+108212040+110188592+111456880+113317552+116584272
1688.69+120284800+123948760+127838024+129138032+122143328+105787736+89431304
1684.19+86547584+100224784+121181632+139727024+152156304+159027584+162892560
1679.69+166671088+171718736+177391648+182153920+183824464+180305968+173119568
1675.19+169385840+175736064+189585920+201750656+207106528+208092752+208695664
1670.70+208822656+206896064+205374560+209445648+220162224+232722432+242358144
1666.20+248620336+253381712+256991152+257934032+255996880+254492768+257891472
1661.70+266789952+277199936+285501344+291586432+296781600+301449280+305611648
1657.20+309530432+312509696+312613856+307490080+294583360+273481376+252049088
1652.70+246893840+267226480+301298368+330405600+346368768+351200704+349818912
1648.20+345867776+340941024+335702752+332607456+336297568+348038688+361879680
1643.70+370769664+373763968+374418976+374983680+375352416+375602176+375676000
1639.20+374124832+370126784+364537184+356637728+343651264+327274720+317050752
1634.70+320618496+332836000+342387552+344342208+341190464+336561504+331731968
1630.20+326300576+319203488+309708064+298954624+289635936+283346720+278966464
1625.70+273588352+264434896+251173872+237456704+228493296+225654160+225249392
1621.20+223165280+218525264+212920496+207277536+199263120+184813392+164694128
1616.70+148761600+147727472+159170256+170761216+175414928+175009296+173240720
1612.20+171106144+168704672+166592384+164701536+162713248+161160800+160432640
1607.70+159887504+159123552+158595296+158384704+157936400+157129584+156278864
1603.20+155426496+154646256+154316768+154408800+154443344+154373760+154411584
1598.70+154234864+153522608+152739936+152324992+151910640+151206080+150641408
1594.20+150540416+150748112+151296720+152289744+153263824+153766176+154098512
1589.70+154624800+155185792+155846688+157066912+158708528+160115040+161193024
1585.20+162210288+163013072+163583840+164435280+165564432+166372272+167006896
1580.70+168077920+169270320+170086448+170430640+168098496+158784512+142965296
1576.20+130943608+134161168+150418112+167038064+176204992+179333184+180456112
1571.70+180123280+176147360+168531248+161925664+161914688+168826432+177613904
1567.20+183553440+185420848+184306832+182138096+180942784+181592800+183189424
1562.70+183688368+179866400+167941120+147496784+124808000+108673488+102683808
1558.20+106217520+119463200+139532944+156626752+161888064+156423040+149917264
1553.70+150589456+157703120+164854320+167240784+164619712+160154256+157490592
1549.20+158026208+160475088+162547392+162263440+158260400+150800864+143102384
1544.70+139250048+138674816+135526224+126244568+114726360+106321720+99170016
1540.20+88467872+77937664+78763008+94353328+114621328+128553208+133355248
1535.70+131443296+125066920+116074392+108446096+106893528+111709720+118128672
1531.20+122032544+123274624+122894320+120618640+116803512+113590288+111729096
1526.70+109156752+105019960+102190744+103254192+106024352+105399656+98320288
1522.20+86352056+75428200+72777944+81015040+94701536+104688000+105915336
1517.70+101156416+97756504+99947488+105521168+110597728+113731944+114428728
1513.20+112122776+108397832+106608720+107481384+108217368+106637352+102604280
1508.70+95330976+83198856+67414360+53876656+50047256+59211804+77292880+95740248
1503.56+107913280+112721248+113271552+113064760+113034544+111530800+107511520
1499.06+103402544+102391816+102735880+99629104+93908392+93214896+101365912
1494.56+112509568+119764464+122527104+122938928+120948808+116054592+110820016
1490.06+109307040+112614968+117822152+121478056+123213496+125530472+130148664
1485.56+135746832+140170720+143234208+145965616+148481696+150227184+151523776
1481.06+153385424+156160432+159401152+162709824+165604912+166972528+166253216
1476.56+165278160+166838720+170458320+171970080+168753152+163468912+161586272
1472.06+166336352+176833808+189498800+200234208+206805696+210059552+212287152
1467.56+214429504+215321952+213256432+208362992+204215360+205628144+212947472
1463.06+221020080+225713664+227815872+229106592+228723344+225636512+220479040
1458.56+212589856+200184688+186822960+182763904+193734192+212622816+228460336
1454.06+237092768+240475248+241308192+241043440+240890752+241790336+243137264
1449.56+242993584+240337840+236733296+235155664+236958512+240590144+243545232
1445.06+244774224+244854384+244544944+243976624+243173376+242447632+241789552
1440.56+240735776+239331792+237764272+234134272+225124224+211459584+200858384
1436.06+200916512+209319936+217012752+219017232+217021376+214155824+211283920
1431.57+207865584+203561856+198847344+195233984+193948432+193888592+192738960
1427.07+190141168+187449728+184763872+180968016+176385264+172655088+170413744
1422.57+169192032+168137264+164782432+155882640+142578512+132467032+132152896
1418.07+139120272+145940192+149204032+150296976+150845968+150989808+150758752
1413.57+150438624+149939072+149165408+148475728+148067152+147674576+147276384
1409.07+147323088+148021200+148921632+149225312+148170944+145638816+142900912
1404.57+142004208+143542800+145794688+146922816+146900288+146192192+143928624
1400.07+139329568+134104864+131210872+131302872+132267128+131856352+129079632
1395.57+124121808+118863280+116424480+118073200+121478552+123507080+123357976
1391.07+122094128+120633872+118930256+116077640+111229536+105494040+102127928
1386.57+103087552+106444896+109001904+109831056+109779048+109347992+108654384
1382.07+108105752+107789888+107187560+106130648+105133024+104611728+104608520
1377.57+105014264+105333648+104718840+102886904+100626432+99148408+99305584
1373.07+101242320+104221176+107043760+109012568+110095600+110280584+109649952
1368.57+108998552+109193856+109959544+110362664+110163264+109534768+108053656
1364.07+105382080+102526000+101022080+101121936+101976096+103188008+104956808
1359.57+106988352+108422656+108820376+108494096+107894296+107189176+106454560
1355.07+105867760+105582344+105545200+105506176+105208688+104630064+104035016
1350.57+103734768+103763736+103842808+103693072+103356264+103101528+103060592
1346.07+103114152+103178736+103391408+103864968+104417128+104655320+104226616
1341.57+102991800+101170144+99355216+98187240+97914920+98337560+99070264
1337.07+99757168+100197128+100461232+100793112+101277784+101684208+101701016
1332.57+101280136+100710928+100367224+100354256+100464336+100498552+100488056
1328.07+100527712+100589104+100599744+100540064+100414048+100317808+100426280
1323.57+100698328+100798424+100550816+100147464+99705664+99057424+98230312
1319.07+97621664+97428480+97414904+97405528+97483368+97561208+97302048+96656680
1313.93+96073160+96021392+96527944+97234576+97745512+97885928+97690120+97262576
1308.79+96751144+96396896+96391712+96667288+96954600+97071280+97078928+97191280
1303.64+97537520+97944168+98042880+97726144+97335344+97237904+97440072+97754280
1298.50+98051016+98202432+98143808+98115312+98489608+99255824+99975160
1294.00+100316952+100385024+100507192+100912336+101584824+102274704+102676144
1289.50+102691840+102540344+102592648+103101776+104010760+104987896+105731000
1285.00+106252328+106789176+107452624+108106976+108611704+109030440+109522984
1280.50+110139424+110828464+111552032+112269656+112915192+113566400+114517680
1276.00+115917248+117430832+118558528+119210360+119707208+120346568+121261040
1271.50+122548224+124200840+125955576+127471872+128694824+129921536+131486216
1267.00+133400096+135328032+136980832+138432736+139944704+141593680+143302496
1262.50+145115936+147197056+149620224+152338592+155263664+158258624+161161440
1258.00+163913520+166621136+169472576+172577792+175839648+179043760+182167200
1253.50+185456832+189052272+192737936+196280656+199809408+203606240+207676560
1249.00+211742048+215603264+219398416+223487568+228052736+232870128+237613648
1244.50+242273680+247079344+252107824+257240656+262399664+267618704+272983136
1240.00+278596320+284460576+290396736+296278432+302230240+308345632+314416480
1235.50+320239488+325981760+331928000+338080864+344291168+350586880+357109248
1231.00+363806912+370392672+376634688+382618400+388622720+394712960+400651872
1226.50+406297856+411883008+417704704+423740224+429733856+435533216+441166112
1222.01+446660992+451918240+456793376+461310272+465680704+470009472+474139072
1217.51+477927936+481485056+484956480+488317568+491524800+494585952+497359232
1213.01+499640032+501503328+503205632+504756864+505955360+506776320+507330080
1208.51+507542272+507242304+506451872+505297888+503843296+502163136+500335520
1204.01+498187136+495390176+491951584+488281632+484637056+480844768+476683456
1199.51+472201120+467547200+462732160+457632192+452089408+446083456+439931616
1195.01+434100384+428610656+422968320+416917504+410872192+405245664+399774528
1190.51+393945376+387763040+381680960+376006784+370686880+365491360+360186240
1186.01+354682752+349151168+343885440+339038816+334544256+330232992+325987584
1181.51+321872128+318122528+314875264+311928768+308907264+305651552+302347552
1177.01+299288320+296565504+294033440+291576512+289270848+287188512+285200320
1172.51+283168320+281135680+279149664+277160608+275290400+273833568+272815168
1168.01+271910016+270896288+269786368+268549088+267198912+266062528+265449328
1163.51+265171680+264813872+264290432+263795904+263481456+263416768+263565024
1159.01+263631200+263288720+262624336+262071744+261914160+262097344+262409152
1154.51+262640960+262705360+262744384+262992304+263554304+264455584+265795136
1150.01+267608000+269680928+271706912+273593344+275528928+277766944+280352736
1145.51+283066784+285698016+288281568+290938432+293669952+296538784+299797504
1141.01+303550528+307515072+311406816+315296832+319379360+323689280+328226432
1136.51+333066336+338249408+343766464+349588096+355512704+361224896+366732448
1132.01+372471264+378817536+385815232+393410272+401470144+409533184+417100896
1127.51+424304704+431851264+440229600+449298560+458607584+467844512+477006496
1123.01+486313824+495939808+505812352+515796704+525949088+536373312+546929216
1118.51+557319040+567437312+577487744+587779328+598414400+609159936+619727424
1114.01+630159232+640662912+651070464+660934912+670290816+679803264+689875520
1109.51+700048384+709596224+718386496+726849856+735367808+743919808+752150848
1105.01+759652672+766367296+772806464+779627392+786892224+794004608+800454144
1100.51+806286656+811736448+816852736+821763904+826870976+832402304+838046336
1096.01+843360960+848280384+852934528+857247744+861080064+864676480+868590912
1091.51+873086592+877777856+882072320+885840000+889346112+892636672+895454976
1087.01+897802560+900043776+902374016+904653696+906792576+908765440+910323712
1082.51+911224448+911664896+912002368+912098176+911325312+909217472+905972096
1078.01+902370368+899048832+895730368+891502720+886075328+880260608+874871104
1073.51+869655616+863706624+856547712+848486848+840124352+831704960+822914368
1069.01+813316416+802838080+791624576+779654272+766910208+753734336+740563392
1064.51+727501056+714461568+701459904+688521664+675595392+662713088+649950080
1060.01+637185216+624213632+611128896+598361600+586271616+574754880+563283008
1055.51+551441728+539400064+527613088+516162592+504814848+493638784+483009248
1051.01+473014848+463351296+453749696+444176256+434793344+425906624+417626752
1046.51+409538016+401245728+393199424+386191520+379996576+373373536+365666368
1042.01+357696928+350739392+345067648+339883104+334444224+328827040+323475264
1037.52+318411104+313323136+308226464+303453696+299036896+294633344+290052960
1033.02+285443648+281003680+276904160+273328672+270258848+267428032+264723616
1028.52+262323888+260231024+258069328+255585024+253005312+250740608+249017328
1024.02+247852608+247057136+246220160+244986640+243450752+242102848+241342288
1019.52+241131024+241113504+241007360+240844064+240787936+240807280+240753840
1015.02+240761792+241263744+242508048+244319216+246365040+248348096+249986752
1010.52+251262304+252705680+255034160+258424848+262476928+266814128+271377152
1006.02+276258752+281613504+287627328+294319040+301526880+309252000+317747552
1001.52+327078432+336892576+346814816+356829792+367179264+378090848+389677696
997.02+401891072+414498240+427211008+439864096+452449632+465028576+477618496
992.52+490055680+501940288+512744384+521937824+529043360+533782592+536282592
988.02+536903360+535719360+532347264+526421344+518124416+508145152+497215040
983.52+485714560+473619808+460773344+447278464+433606720+420269600+407432224
979.02+394868608+382249088+369498688+356998656+345335808+334679648+324582592
974.52+314669760+305230144+296709568+288929856+281375104+273991968+267115968
970.02+260845440+255025040+249632048+244711456+240133328+235752512+231613424
965.52+227865808+224690976+222233936+220289840+218252176+215740672+213075776
961.02+210837808+209192736+207871216+206546992+205095600+203724448+202820080
956.52+202450000+202163680+201508000+200532880+199591376+198881760+198361024
952.02+197939632+197659376+197667296+197989200+198392704+198623456+198640208
947.52+198467360+198087728+197672336+197573968+197858864+198223008+198490224
943.02+198767200+199024096+199004224+198656544+198321040+198376608+198857968
938.52+199398336+199545904+199269216+199034624+199234400+199765616+200339872
934.02+200841104+201237008+201552992+202046720+202887360+203637120+203642464
929.52+203027776+202688512+203172672+204075776+204750384+205172352+205797584
925.02+206776608+207676016+208066112+208088304+208224912+208682224+209277616
920.52+209807520+210251072+210666224+211116400+211680736+212379968+213125744
916.02+213792224+214301744+214645392+214865200+215038176+215308976+215898256
911.52+216907600+218025952+218694624+218716912+218477008+218420048+218597664
907.02+218853504+219172176+219638992+220261600+220894288+221269264+221221840
902.52+220973216+220926976+221082352+221081184+220952720+221218320+221996864
898.02+222674256+222833200+222891168+223387648+224169184+224697024+224724400
893.52+224346768+223782304+223354640+223331632+223571488+223649088+223406320
889.02+223084304+222871056+222632976+222169552+221472992+220671040+219872768
884.52+219176272+218745248+218739104+219072096+219329520+219081152+218286016
880.02+217253408+216300208+215654752+215537776+215944096+216351056+216039488
875.52+214907616+213677472+213067264+212929024+212507872+211485488+210355312
871.02+209621680+209069008+208207040+207162240+206630192+206982912+207781584
866.52+208220512+207826432+206708800+205306048+203975872+202798096+201687200
862.02+200640512+199876448+199710544+200177808+200800016+200974992+200666112
857.52+200429024+200710176+201418528+202074288+202001328+200709392+198689424
853.03+197461168+197932752+199073200+199258160+198566048+198521504+199718048
848.53+201052496+201459216+201120224+200651296+200258256+200054096+200224320
844.03+200594240+200841104+201298112+202642064+204716384+206497840+207401184
839.53+207894672+208650512+209589296+209990864+209451664+208564496+208241232
835.03+208464128+208391040+207582752+206300720+204745040+202997216+201491216
830.53+200385104+198929808+196737408+195081680+195401616+196823408+196814736
826.03+194492880+191913632+191304832+192092752+191935632+190168864+188367344
821.53+187379888+186068736+183877712+182294688+182338096+182732480+182053232
817.03+180723872+179523136+178051680+175955936+173993872+172958960+172850544
812.53+173357504+173852160+173257648+171409536+169975504+170451776+171960096
808.03+172583440+172137264+171937168+172375600+172461072+171667888+170702320
803.53+170209600+169872240+169215184+168363440+167681216+167391712
##END=
