##TITLE=Methyl Ethyl Ketone
##JCAMP-DX=4.24
##DATA TYPE=INFRARED SPECTRUM
##XUNITS=cm-1
##YUNITS=Absorbance
##FIRSTX=900
##LASTX=2300
##XYDATA=(X++(Y..Y))
2296 0.0041389
2294 0.004224977
2292 0.0043111532
2290 0.0043972307
2288 0.0044833072
2286 0.0045694835
2284 0.0046555609
2282 0.0047417372
2280 0.0048277159
2278 0.0049138903
2276 0.0049999687
2274 0.005085947
2272 0.0051721204
2270 0.0052582971
2268 0.005344376
2266 0.0054305508
2264 0.0055166297
2262 0.0056027062
2260 0.0056887832
2258 0.0057748603
2256 0.0058610342
2254 0.005947114
2252 0.006033191
2250 0.0061193644
2248 0.0062054442
2246 0.0062915217
2244 0.00023379944
2242 0.017410509
2240 0.040332999
2238 0.029517459
2236 0.013644028
2234 -0.021868318
2232 -0.058083449
2230 -0.078537062
2228 -0.099040747
2226 -0.12626949
2224 -0.15118405
2222 -0.16416669
2220 -0.16467814
2218 -0.12924984
2216 -0.096512429
2214 -0.074052773
2212 -0.0777248
2210 -0.1230258
2208 -0.17658508
2206 -0.23723637
2204 -0.28604376
2202 -0.32297876
2200 -0.35909978
2198 -0.39519021
2196 -0.42987645
2194 -0.4637894
2192 -0.48508903
2190 -0.50089872
2188 -0.49140176
2186 -0.47378606
2184 -0.43313122
2182 -0.38729119
2180 -0.35202616
2178 -0.31875998
2176 -0.31809029
2174 -0.32442442
2172 -0.37656042
2170 -0.4375259
2168 -0.52430445
2166 -0.60500604
2164 -0.65445513
2162 -0.68741447
2160 -0.68608826
2158 -0.67969763
2156 -0.67024797
2154 -0.66634065
2152 -0.67094427
2150 -0.68088812
2148 -0.69587719
2146 -0.70632356
2144 -0.71231854
2142 -0.708381
2140 -0.69790351
2138 -0.68003494
2136 -0.65846974
2134 -0.64220935
2132 -0.62822658
2130 -0.63573283
2128 -0.65000159
2126 -0.6788488
2124 -0.71102697
2122 -0.75344509
2120 -0.79714125
2118 -0.83458656
2116 -0.86621076
2114 -0.86066347
2112 -0.84646332
2110 -0.81749249
2108 -0.79647726
2106 -0.80609828
2104 -0.84308648
2102 -0.9306249
2100 -1.0374554
2098 -1.1643143
2096 -1.2588143
2094 -1.3075255
2092 -1.305057
2090 -1.2566075
2088 -1.2098451
2086 -1.16961
2084 -1.1558931
2082 -1.1591593
2080 -1.1563634
2078 -1.1493679
2076 -1.1127157
2074 -1.0641128
2072 -1.0110921
2070 -0.95711654
2068 -0.94369203
2066 -0.94159329
2064 -0.99145049
2062 -1.0522876
2060 -1.1181226
2058 -1.174718
2056 -1.1750515
2054 -1.1525215
2052 -1.0889963
2050 -1.0250646
2048 -0.98232943
2046 -0.95667106
2044 -0.95687681
2042 -0.96155268
2040 -0.96417773
2038 -0.96531415
2036 -0.96367228
2034 -0.96689343
2032 -0.97556841
2030 -0.99314451
2028 -1.0178305
2026 -1.0600899
2024 -1.1133949
2022 -1.1808826
2020 -1.2552354
2018 -1.3075267
2016 -1.34944
2014 -1.3429062
2012 -1.3195106
2010 -1.2759875
2008 -1.227736
2006 -1.1938558
2004 -1.1659149
2002 -1.157514
2000 -1.1560115
1998 -1.1672924
1996 -1.1803786
1994 -1.1916487
1992 -1.2037075
1990 -1.2143705
1988 -1.230016
1986 -1.2496049
1984 -1.2642806
1982 -1.2710786
1980 -1.2656186
1978 -1.2505615
1976 -1.2456971
1974 -1.253408
1972 -1.2845446
1970 -1.3326311
1968 -1.3656571
1966 -1.3869271
1964 -1.3757851
1962 -1.3471434
1960 -1.3349121
1958 -1.3303657
1956 -1.3530985
1954 -1.3840516
1952 -1.3895634
1950 -1.3825006
1948 -1.3513948
1946 -1.317275
1944 -1.3047583
1942 -1.3086047
1940 -1.3306088
1938 -1.3542464
1936 -1.3637143
1934 -1.3540269
1932 -1.320008
1930 -1.270108
1928 -1.2118977
1926 -1.1690257
1924 -1.1527649
1922 -1.1838915
1920 -1.2555652
1918 -1.325215
1916 -1.3786
1914 -1.3549612
1912 -1.2759309
1910 -1.1835068
1908 -1.0910525
1906 -1.0716321
1904 -1.091352
1902 -1.1535738
1900 -1.2318108
1898 -1.293178
1896 -1.3441285
1894 -1.3627198
1892 -1.3661363
1890 -1.344506
1888 -1.3098205
1886 -1.2512143
1884 -1.1842995
1882 -1.1174424
1880 -1.0598565
1878 -1.0283283
1876 -1.01932
1874 -1.0448458
1872 -1.0983378
1870 -1.182345
1868 -1.2710863
1866 -1.3427436
1864 -1.369576
1862 -1.344103
1860 -1.2855788
1858 -1.2137078
1856 -1.1560458
1854 -1.1164184
1852 -1.09584
1850 -1.0901053
1848 -1.095144
1846 -1.1103536
1844 -1.1373591
1842 -1.1735501
1840 -1.1954051
1838 -1.2052829
1836 -1.1993057
1834 -1.182303
1832 -1.175532
1830 -1.1822383
1828 -1.2121954
1826 -1.2498128
1824 -1.2586532
1822 -1.2368587
1820 -1.1769019
1818 -1.090909
1816 -0.99719113
1814 -0.8980881
1812 -0.80065918
1810 -0.73284268
1808 -0.69759178
1806 -0.70682353
1804 -0.75128615
1802 -0.78683746
1800 -0.81039882
1798 -0.79224217
1796 -0.74424785
1794 -0.72075647
1792 -0.71219122
1790 -0.72344303
1788 -0.73819792
1786 -0.68942541
1784 -0.59876937
1782 -0.49177021
1780 -0.37901899
1778 -0.30852291
1776 -0.27268973
1774 -0.29088503
1772 -0.33321846
1770 -0.33741102
1768 -0.30368507
1766 -0.20777628
1764 -0.079867102
1762 0.039391007
1760 0.031726222
1758 -0.062926002
1756 -0.16237542
1754 -0.26313108
1752 -0.35150635
1750 -0.43103749
1748 -0.50548244
1746 -0.57259965
1744 -0.6499058
1742 -0.72688228
1740 -0.80630636
1738 -0.8917048
1736 -0.95380402
1734 -1.0053054
1732 -0.956137
1730 -0.83233279
1728 -0.66916674
1726 -0.47499406
1724 -0.31605831
1722 -0.16543239
1720 0.037123933
1718 0.35071254
1716 0.91147858
1714 1.6350187
1712 2.4890807
1710 3.4244196
1708 4.3607278
1706 5.4211349
1704 6.6940498
1702 8.431282
1700 10.771933
1698 13.943306
1696 17.977285
1694 22.07826
1692 25.877518
1690 29.187965
1688 32.032135
1686 35.303856
1684 39.121838
1682 43.833588
1680 49.287922
1678 54.235401
1676 58.681145
1674 63.021458
1672 67.349663
1670 72.348351
1668 77.794022
1666 82.909599
1664 87.587799
1662 91.359344
1660 94.291985
1658 96.444153
1656 97.857773
1654 98.595169
1652 98.676941
1650 98.186447
1648 97.26667
1646 96.150963
1644 94.96434
1642 93.792824
1640 92.325317
1638 90.39753
1636 87.628662
1634 83.981033
1632 79.929634
1630 75.701302
1628 71.46302
1626 67.245964
1624 62.71188
1622 57.849926
1620 53.000507
1618 48.204147
1616 43.690113
1614 39.496769
1612 35.832687
1610 32.718288
1608 30.1166
1606 27.994371
1604 26.168777
1602 24.645838
1600 23.389915
1598 22.415754
1596 21.698502
1594 21.241501
1592 21.012806
1590 20.997169
1588 21.155617
1586 21.492392
1584 21.985743
1582 22.648729
1580 23.467615
1578 24.570566
1576 25.998457
1574 27.817636
1572 30.044401
1570 32.458939
1568 35.011879
1566 37.451843
1564 39.736362
1562 41.799557
1560 43.665833
1558 45.920288
1556 48.560398
1554 51.306961
1552 53.970314
1550 55.75423
1548 56.67326
1546 57.122036
1544 57.048378
1542 56.528244
1540 55.460121
1538 53.884094
1536 52.041656
1534 50.294678
1532 48.703388
1530 47.253452
1528 45.844715
1526 44.395649
1524 42.749695
1522 40.823982
1520 38.539902
1518 35.874104
1516 33.298885
1514 30.970634
1512 28.83156
1510 26.8654
1508 24.461441
1506 21.4715
1504 18.5114
1502 15.676344
1500 13.355254
1498 11.60838
1496 9.8975573
1494 8.2199039
1492 6.5566468
1490 4.9391017
1488 3.4532754
1486 2.1696422
1484 1.1558056
1482 0.46569034
1480 0.066936947
1478 -0.067433275
1476 0.027995244
1474 0.45082319
1472 1.2337923
1470 2.2263291
1468 3.3842309
1466 4.534194
1464 5.534451
1462 6.4343462
1460 7.2235403
1458 8.0186825
1456 8.8671598
1454 9.6889019
1452 10.474197
1450 10.99717
1448 11.1274
1446 11.042892
1444 10.657038
1442 10.176661
1440 9.5560608
1438 8.834877
1436 7.9740114
1434 7.0367646
1432 6.0666165
1430 5.244
1428 4.6162462
1426 4.1668
1424 3.8770154
1422 3.661309
1420 3.5309594
1418 3.5188088
1416 3.643517
1414 3.9495239
1412 4.364357
1410 4.8227091
1408 5.2872057
1406 5.7268214
1404 6.1322732
1402 6.4973841
1400 6.7702117
1398 6.8910384
1396 6.8921142
1394 6.7031584
1392 6.4730711
1390 6.1959591
1388 5.9089909
1386 5.6096549
1384 5.2902622
1382 4.9428329
1380 4.586257
1378 4.2058711
1376 3.7921515
1374 3.3254147
1372 2.825774
1370 2.3085136
1368 1.8154137
1366 1.3566172
1364 0.92124385
1362 0.51288807
1360 0.15020639
1358 -0.13613012
1356 -0.28275973
1354 -0.2975024
1352 -0.1388624
1350 0.12686706
1348 0.52645838
1346 0.94625717
1344 1.369732
1342 1.7704911
1340 2.115833
1338 2.4245915
1336 2.6630685
1334 2.8205466
1332 2.8537569
1330 2.8190229
1328 2.6843081
1326 2.5445957
1324 2.3955081
1322 2.2859046
1320 2.2187142
1318 2.1833997
1316 2.1722398
1314 2.1525464
1312 2.1212256
1310 2.0532489
1308 1.9642534
1306 1.8591365
1304 1.7600366
1302 1.699338
1300 1.674288
1298 1.7119354
1296 1.7885144
1294 1.9244027
1292 2.1039429
1290 2.3679335
1288 2.679244
1286 3.0853043
1284 3.4999967
1282 3.9216456
1280 4.2985468
1278 4.5742431
1276 4.8037543
1274 4.9445372
1272 5.0875936
1270 5.2375531
1268 5.4232025
1266 5.6658392
1264 5.9444451
1262 6.2767367
1260 6.652494
1258 7.083847
1256 7.5739284
1254 8.1296968
1252 8.7612381
1250 9.4587288
1248 10.222137
1246 11.0145
1244 11.798135
1242 12.539465
1240 13.152268
1238 13.652025
1236 13.8946
1234 13.988195
1232 13.75096
1230 13.377284
1228 12.669123
1226 11.865264
1224 10.813189
1222 9.7340307
1220 8.6032047
1218 7.5484457
1216 6.6638541
1214 5.9296737
1212 5.4602995
1210 5.1426878
1208 5.0401378
1206 5.0202003
1204 5.0767016
1202 5.0701175
1200 4.9686298
1198 4.6924043
1196 4.2660503
1194 3.7314882
1192 3.1450703
1190 2.5984001
1188 2.0943525
1186 1.694665
1184 1.3560159
1182 1.1276972
1180 0.9534061
1178 0.89528191
1176 0.872392
1174 0.92696989
1172 0.98906386
1170 1.0646156
1168 1.1420531
1166 1.2275944
1164 1.3177683
1162 1.416055
1160 1.4889314
1158 1.5027975
1156 1.4517486
1154 1.2923174
1152 1.0929029
1150 0.84669554
1148 0.62630558
1146 0.43915284
1144 0.28925771
1142 0.17499915
1140 0.085027978
1138 0.016559495
1136 -0.023787541
1134 -0.048520356
1132 -0.016950635
1130 0.038245115
1128 0.1033809
1126 0.17424744
1124 0.25969285
1122 0.34928036
1120 0.44752601
1118 0.54203653
1116 0.61277914
1114 0.68000281
1112 0.73348039
1110 0.77863556
1108 0.79654849
1106 0.80156654
1104 0.7772854
1102 0.76643652
1100 0.78778291
1098 0.86027002
1096 1.0170085
1094 1.2259251
1092 1.49998
1090 1.788884
1088 2.0916839
1086 2.3911479
1084 2.6839139
1082 2.9475226
1080 3.174716
1078 3.269263
1076 3.2832913
1074 3.1480184
1072 2.966732
1070 2.8023272
1068 2.6554818
1066 2.6075377
1064 2.5754881
1062 2.565438
1060 2.5510013
1058 2.501225
1056 2.4454856
1054 2.3647568
1052 2.2924187
1050 2.247118
1048 2.2147806
1046 2.2126322
1044 2.1994748
1042 2.1657133
1040 2.1175747
1038 2.051543
1036 2.0074298
1034 1.9911392
1032 2.0089047
1030 2.052351
1028 2.0563033
1026 2.019238
1024 1.8401685
1022 1.5780709
1020 1.2168183
1018 0.82735747
1016 0.53916687
1014 0.29355067
1012 0.21735854
1010 0.17066821
1008 0.1345388
1006 0.088945247
1004 -0.077253684
1002 -0.25669998
1000 -0.51874816
998 -0.77308053
996 -0.9918443
994 -1.180599
992 -1.2748389
990 -1.3475711
988 -1.3714569
986 -1.4037471
984 -1.4515069
982 -1.5062745
980 -1.568146
978 -1.5842725
976 -1.5503972
974 -1.4694922
972 -1.3508174
970 -1.2277665
968 -1.1012797
966 -0.95280552
964 -0.79325575
962 -0.6081233
960 -0.4157725
958 -0.25271297
956 -0.10004777
954 -0.046686165
952 -0.008406505
950 -0.047358915
948 -0.082890376
946 -0.027320143
944 0.0061350912
942 0.18502612
940 0.37093282
938 0.58561879
936 0.79370058
934 0.98157036
932 1.1493143
930 1.2731837
928 1.3573754
926 1.3775178
924 1.3682899
922 1.3227751
920 1.2729812
918 1.2199212
916 1.19616
914 1.1938796
912 1.2313595
910 1.289379
908 1.3872573
906 1.4992243
904 1.6704617
902 1.8559128
900 2.0219653
898 2.1844647
896 2.2995999
