##TITLE=octarelline 6 front
##JCAMP-DX=4.24
##DATA TYPE=INFRARED SPECTRUM
##DATE=31/1/2005
##TIME=16:55:5
##SAMPLING PROCEDURE=film
##ORIGIN=Vincent
##DATA PROCESSING=no operation
##XUNITS=1/CM
##YUNITS=ABSORBANCE
##RESOLUTION=2
##FIRSTX=4000.283
##LASTX=800.31372
##DELTAX=-0.64282227
##MAXY=0.23431757
##MINY=-0.002076261
##XFACTOR=1
##YFACTOR=2.1822524e-010
##NPOINTS=4979
##FIRSTY=0.0041270819
##XYDATA=(X++(Y..Y))
4000.28+18912028+19330850+19431824+19124120+18622964+18194716+18047718+18285698
3995.14+18704626+18769764+18150424+17232360+16734791+16833002+17083042+17162366
3990.00+17190006+17341128+17558918+17720840+17794926+17826760+17885768+17952676
3984.86+17908630+17765004+17696188+17680508+17445832+16968666+16611704+16571155
3979.71+16677374+16813266+17011376+17112114+16943660+16793288+17131258+17913180
3974.57+18627994+18907358+18712888+18146952+17447388+16966392+16872482+16989484
3969.43+17081606+17183544+17507220+18044486+18367584+18030842+17213696+16679167
3964.28+16887078+17412566+17546114+17247796+17133770+17622226+18431158+18955616
3959.14+18910590+18473660+17939990+17463540+17146452+17104816+17289078+17418070
3954.00+17304872+17102184+17028484+17012572+16835992+16507283+16261860+16247750
3948.86+16402507+16583236+16673547+16615770+16478457+16420328+16490179+16540054
3943.71+16437671+16254926+16165709+16259708+16503695+16764337+16856688+16711824
3938.57+16525584+16599143+17007072+17531754+17918562+18081592+18017074+17618276
3933.43+16753810+15660277+15021822+15295659+16063466+16503336+16469248+16595795
3928.29+17254856+17953038+17983560+17285368+16372489+15679884+15285618+15183417
3923.14+15470309+16133543+16850706+17236788+17208430+16970220+16726417+16496756
3918.00+16158894+15680363+15351841+15565591+16247750+16882052+17274122+17774340
3912.86+18526816+19121966+19221972+18949510+18544658+18210160+18210160+18510416
3907.72+18540826+17843876+16536826+14842313+12918917+11384116+10904942+11007996
3902.57+10612747+9827610+9777425+10637672+11412870+11705897+12232169+13456378
3897.43+14976644+16353952+17542522+18470666+18978970+19126036+18952742+18048078
3892.29+16038115+13628357+12474110+13484921+15760467+17747288+18790840+18851550
3887.15+17524094+14609046+11458084+10383315+12211044+15433010+18085544+19363906
3882.00+19301742+18037422+16103765+14802637+15298050+17310256+19447636+20778534
3876.86+21377712+21400852+20528990+18736956+16977758+16489701+17470484+18624402
3871.72+18065912+14910911+10394641+7326894+7820689+11441979+15872980+18880292
3866.58+19397924+17655138+15082180+13685807+14501264+16504174+17757704+17669738
3861.43+17404908+18035750+19219458+20081880+20336160+20125614+19731906+19460570
3856.29+18543700+14669630+6582683-2846750-8350651-8007826-4331570+509184
3851.15+6358594+12496551+17126232+19527174+20583762+21263330+21808086+22077460
3846.01+21748962+20475418+18448516+16585866+15839262+16330987+17174452+17357042
3840.86+16891384+16437671+15509401+12569128+7960502+5125184+6754308+10962433
3835.72+13964239+14870875+15553276+17049540+18189330+17725986+16331467+15920451
3830.58+17419146+19781864+21360448+21581674+20876824+19751310+18716360+18509218
3825.44+19399600+20636020+21232996+20707816+18703546+14995290+10624195+7930609
3820.29+8391795+11215671+14636648+17179836+17368888+14199222+9040638+5799966
3815.15+7352611+12378260+17330240+20242928+21452770+21886398+21920702+21671254
3810.01+21399294+21138282+20138796+17415078+13365140+10385579+10727115+13796292
3804.86+16990080+18638290+18520834+16340437+11881066+6916425+4912911+7474412
3799.72+12526633+16976682+19410022+19945284+19236466+18257326+18018988+18763298
3794.58+19811214+20466190+20690196+20838348+21106512+21392100+21503732+21417042
3789.44+21306372+21323758+21378910+21275798+20971168+20553320+20071574+19598328
3784.29+19342826+19481294+19918686+20331606+20351620+19708784+18460726+17176006
3779.15+16621990+17125872+18346272+19658828+20581604+20955344+20909194+20634582
3774.01+20236816+19886934+19807142+19741250+18846162+16714814+14306747+13287757
3768.87+14360035+16585987+18269416+18295992+16944020+15623213+15549689+16617924
3763.72+17827002+18549206+18891550+18974540+18430798+16933732+15051105+14053594
3758.58+14528628+15614128+16082119+15762022+15431815+15732132+16355506+15786294
3753.44+12174881+5745600+84815-1323363+104745+220172-1587930-1842270+1603564
3747.65+6864646+10859024+11296313+6643738-2117670-9514302-9385855-2141132
3742.51+6159636+11242632+13242260+13977856+14486329+14772162+14290141+12502518
3737.37+9607446+6595061+4477973+3869480+4974510+7052247+8317226+7638970+6222224
3731.58+6515561+9273848+12749984+14974373+15607313+15420458+14958479+14300057
3726.44+13643049+13479070+14079039+15047637+15557700+15088994+14000434+13268531
3721.30+13499970+14320249+14918800+14976404+14808253+14885814+15479752+16480969
3716.16+17324496+17426086+16773309+15562600+13356064+9697916+5763920+3954936
3711.01+5004477+7037843+8329853+9267652+10875244+12946617+14631869+15713002
3705.87+16399160+16695914+16618163+16337687+15726033+14426227+12720856+11726420
3700.73+12299365+14109144+16041462+17221712+17500280+17277112+17059710+17042960
3695.59+16933492+16316517+15291953+14387755+13627044+12330756+10376636+8790297
3690.44+8027674+6628028+3299789-244105-456872+3663997+9335700+13462230+15235892
3684.66+15440662+14961466+14391459+14193129+14558382+15213421+15556983+15124611
3679.51+14104126+13240828+12785798+11620109+8173100+2574898-2476675-3723330
3674.37-352033+5492224+10620618+12528302+10457246+6111208+2803195+2610412
3669.23+4738354+7476913+10333830+13325015+15785577+17027648+17217762+16907292
3664.09+16426309+16080445+16178028+16659309+17213576+17644484+17844476+17803064
3658.94+17699658+17333110+15761184+12600402+9415552+8491265+10247264+13108403
3653.80+15498164+16668762+16230767+14111056+10742381+6855005+3422887+1682393
3648.66+2242952+4252693+6467838+8793751+11789781+15192025+17979008+19567782
3643.52+20132326+20036824+19587670+19172268+19123402+19385706+19566346+19393732
3638.37+19032024+18898616+19212630+19830746+20424844+20685402+20459716+19970326
3633.23+19778030+20200386+20746290+20263538+17717610+13157718+8327232+5943089
3628.09+7475484+11714367+16133183+19185440+20889892+21903550+22652794+23136846
3622.95+23232010+23024282+22657712+21910026+20465710+18751444+17806654+18095000
3617.80+19142208+20421966+21717302+22663230+22893002+22599042+22211080+21802568
3612.66+21521240+21956440+23101802+23693876+22708822+20948990+20159646+20894450
3607.52+22251024+23461612+24653476+26071750+27436074+28321678+28679184+28657280
3602.38+28295088+27754086+27479976+27665196+27860060+27685404+27540346+27927304
3597.23+28496390+28569312+28252856+28217484+28668952+29271474+29829384+30441048
3592.09+31190742+31964102+32351198+31768838+30168734+28467874+27676382+27796066
3586.95+28213030+28879198+30213774+32056804+33558656+34150716+34100752+34066604
3581.81+34423336+35107524+35888932+36589568+37057928+37207672+37194132+37316568
3576.66+37614524+37830672+37900672+38159060+38853240+39734620+40330936+40455140
3571.52+40324160+40241608+40191256+39768024+38637336+37027720+35586040+34824068
3566.38+34934400+35912240+37442272+38870416+39770200+40447152+41481600+42843200
3561.24+43902784+44325688+44469060+44756924+45083176+45183772+45238980+45633640
3556.09+46281996+46682572+46569272+46103652+45523560+45039376+44993748+45673940
3550.95+46888660+48055632+48755712+49014168+49042496+48928460+48731768+48753160
3545.81+49365320+50457700+51398408+51802572+52021124+52555364+53372900+54107028
3540.67+54591104+54861908+54965436+55038968+55312636+55831656+56364848+56669456
3535.52+56715100+56706680+56957260+57565360+58220296+58540696+58562688+58576620
3530.38+58621324+58507840+58249976+58126740+58351360+58891824+59535100+60024540
3525.24+60251696+60385708+60681996+61192272+61758100+62221040+62571588+62953548
3520.09+63546204+64371452+65217756+65808768+66005804+65893612+65777496+66058900
3514.95+66946036+68216776+69331600+69818544+69619032+69133984+68896352+69162120
3509.81+69857240+70796464+71754576+72471408+72865976+73127960+73387752+73537296
3504.67+73560552+73678848+73943760+74142480+74262640+74591440+75237592+76018528
3499.52+76808392+77555792+78090872+78387112+78766816+79418144+80025608+80298904
3494.38+80501088+81012520+81725768+82271384+82566256+82783512+82985216+83083528
3489.24+83118896+83327320+83866816+84610184+85319392+85936336+86480744+86777488
3484.10+86612336+86149256+85860664+86037528+86599944+87358328+88188920+89009072
3478.95+89763792+90402096+90781984+90765600+90481800+90323896+90569808+91117112
3473.81+91627552+91842192+91810024+91891264+92463776+93529480+94639920+95294232
3468.67+95397512+95315256+95490232+95980632+96400184+96391464+96113704+96095040
3463.53+96620192+97453912+98172712+98573768+98725104+98800632+98940640+99151704
3458.38+99371648+99651864+100113472+100659408+101016920+101190896+101506936
3453.88+102023672+102330344+102164128+101820528+101711408+101947624+102480080
3449.38+103174952+103608024+103339368+102562888+102041888+102276272+103067272
3444.88+103930072+104606696+105166744+105808024+106549120+107083552+107063408
3440.38+106529096+105912744+105718320+106168712+106980160+107500568+107374488
3435.89+107003688+107061896+107715432+108617832+109404320+109846896+109809040
3431.39+109393048+108894072+108483536+108185800+108150976+108535888+109142928
3426.89+109523760+109439416+109009728+108550296+108410504+108773416+109465608
3422.39+110061896+110221360+109903552+109388912+109120480+109336776+109848904
3417.89+110290944+110474752+110402536+110128952+109820328+109758896+110128584
3413.39+110880816+111774360+112465464+112695432+112512912+112161352+111754784
3408.89+111329864+111099688+111253960+111572864+111617904+111243808+110715144
3404.39+110400152+110475880+110756160+110796408+110392248+109882744+109743104
3399.89+110010984+110312752+110259216+109730320+108980528+108532016+108701632
3395.39+109206448+109453952+109200432+108792088+108741976+109129392+109500840
3390.89+109471000+109256440+109301440+109540440+109538176+109213600+108871512
3386.39+108647776+108457856+108376432+108560200+108918624+109184648+109167728
3381.89+108789952+108146608+107579688+107441096+107787928+108461112+109231272
3377.39+109734832+109608744+108910600+108121048+107617880+107421440+107446480
3372.89+107697016+108148728+108667560+109082784+109299816+109372240+109395296
3368.39+109334136+109077264+108664544+108212472+107687256+107077416+106667256
3363.89+106699664+106901680+106829832+106573264+106600800+106956256+107123232
3359.39+106703672+105871824+105123736+104817128+104994936+105426768+105742720
3354.89+105701072+105423128+105303072+105611512+106237776+106848240+107174808
3350.39+107137880+106812432+106380680+106009440+105747984+105554216+105346960
3345.89+104969928+104299160+103477696+102875144+102716752+102905880+103265400
3341.39+103696864+104057552+104177792+104132048+104231416+104567944+104792864
3336.89+104571184+104107800+103866952+103861328+103654128+103129976+102772592
3332.39+102954712+103402104+103650376+103620768+103488064+103352992+103260416
3327.89+103274280+103356864+103409720+103433216+103466080+103461816+103397472
3323.39+103345624+103337008+103367992+103566912+104058440+104658952+104989680
3318.89+104885768+104484176+103968560+103436464+102960840+102664432+102706264
3314.39+103135360+103750360+104272536+104685088+105142992+105534832+105476160
3309.89+104839008+103974184+103359992+103268664+103765224+104735976+105845680
3305.39+106605304+106590792+105733600+104507928+103683872+103664760+104118416
3300.89+104432928+104370672+104077552+103685000+103264280+103062392+103380616
3296.39+104104424+104608568+104325416+103340752+102358448+102087104+102672912
3291.89+103643264+104341424+104433432+104061544+103587528+103252408+103051904
3287.39+102854904+102576488+102242672+101878832+101416440+100842712+100383304
3282.89+100248448+100241216+99943584+99300824+98685832+98383080+98333608
3278.39+98338960+98192776+97675544+96735136+95630240+94718288+94223976+94173728
3273.25+94328576+94299968+93988928+93675072+93392232+92725608+91595248+90647400
3268.11+90358656+90329488+89956880+89246880+88500176+87736520+86882448+86095016
3262.97+85576696+85276808+84955528+84415488+83687416+82995096+82376472+81512712
3257.82+80280504+79245808+79042032+79425800+79543688+78997344+78098400+77245752
3252.68+76542104+75948528+75402416+74843296+74286288+73800224+73413968+73165728
3247.54+73130048+73215208+73159088+72917536+72787344+72925408+73034672+72739984
3242.40+72037576+71198440+70430824+69750848+69101688+68545912+68269808+68265016
3237.25+68164120+67702624+67186136+67032160+67037188+66647704+65859160+65217996
3232.11+65007804+64991624+64916256+64741132+64393264+63783436+63132060+62874448
3226.97+63111732+63411864+63297484+62769908+62274520+62231812+62637444+63040472
3221.83+62892936+62036240+60864956+59912436+59342484+59028916+58965744+59238976
3216.68+59677372+59920624+59829184+59515056+59082560+58640016+58409380+58447616
3211.54+58464960+58233728+57970288+57989340+58188904+58162404+57715544+57091172
3206.40+56675436+56578900+56553028+56326532+55912420+55490952+55177992+55037504
3201.25+55093604+55181772+55058232+54743756+54464924+54253176+53934804+53467692
3196.11+52970116+52569252+52442104+52710412+53072572+52955988+52286336+51663052
3190.97+51584044+51917384+52269292+52474736+52554024+52471940+52105508+51417272
3185.83+50643620+50187744+50182872+50318036+50264872+50088112+50034716+50164632
3180.68+50396016+50663940+50872388+50909504+50795480+50634616+50434832+50171564
3175.54+49970244+49993844+50184332+50318884+50303436+50263776+50317308+50391032
3170.40+50356724+50280684+50382392+50739624+51147792+51348260+51339980+51378568
3165.26+51647104+52003348+52174060+52200728+52429676+52975600+53482924+53618792
3160.11+53462940+53183320+52691660+51925912+51168848+50777588+50801808+51056028
3154.97+51413012+51852000+52281472+52422492+52030376+51283256+50732320+50658100
3149.83+50753252+50657128+50477540+50481916+50623664+50666376+50525716+50272540
3144.69+50015616+49859436+49790840+49625316+49212836+48573012+47767292+46884892
3139.54+46210484+46055700+46336880+46590892+46486468+46124776+45843144+45841808
3134.40+45983832+45925324+45487516+44825344+44165832+43562420+43056040+42815688
3129.26+42881868+42962588+42758116+42396016+42314828+42701648+43236540+43468820
3124.12+43324912+43057376+42826112+42537672+42101824+41616772+41304896+41335176
3118.97+41624036+41796296+41572564+41174468+41020068+41103384+41102896+40942572
3113.83+40775360+40561068+40129284+39547304+39058276+38824696+38915656+39261764
3108.69+39545852+39483656+39175500+38857472+38485924+37975996+37591188+37659372
3103.55+38088324+38467540+38517488+38300776+38140072+38307912+38683424+38868120
3098.40+38696240+38364628+38080948+37939484+38051444+38370556+38566104+38479392
3093.26+38403564+38564896+38709064+38572640+38257248+37862352+37307260+36775764
3088.12+36750996+37314632+37899104+37961124+37562908+37152800+37046936+37188576
3082.98+37272932+37095272+36772256+36517196+36305176+36032544+35856080+36011164
3077.83+36370052+36570240+36560208+36612168+36804284+36876304+36689252+36472736
3072.69+36462832+36544868+36432988+36060204+35661876+35514064+35647384+35808980
3067.55+35786876+35719000+35861876+36099340+36031332+35555248+34935124+34343920
3062.41+33829992+33640932+33940152+34311336+34238204+33945220+34019908+34405112
3057.26+34554044+34388696+34275496+34223604+33893092+33300148+32820974+32564490
3052.12+32293330+31947108+31835852+32235944+32984142+33565780+33613308+33213424
3046.98+32677834+32175066+31768234+31591428+31678562+31818496+31847302+31890816
3041.83+32080910+32302372+32403042+32393518+32316722+32159874+31938310+31642288
3036.69+31173270+30566802+30153076+30236660+30731592+31264606+31540088+31544306
3031.55+31522852+31723036+32071872+32239198+32100322+31887686+31831874+31885394
3026.41+31886600+31758956+31522490+31309556+31339562+31693628+32172892+32501550
3021.26+32570038+32412928+32093210+31684714+31331488+31272924+31717012+32564490
3016.12+33359856+33694136+33590748+33334402+33082436+32826038+32567624+32329620
3010.98+32132266+32082356+32304902+32712444+32972442+32794202+32228710+31726292
3005.84+31829464+32617304+33498580+33798380+33468906+32976424+32682174+32632014
3000.69+32801076+33185918+33727920+34345252+34958304+35461056+35837844+36262052
2995.55+36832804+37288284+37266168+36808024+36367036+36345768+36767428+37350776
2990.41+37817260+38138264+38460164+38802924+39012672+39073156+39238412+39723244
2985.27+40451388+41186576+41733908+41983704+41942028+41796412+41848504+42336520
2980.12+43251816+44252668+44882616+45013044+44973124+45134872+45562400+46185356
2974.98+47011692+47986368+48885060+49549064+50032288+50441036+50845248+51335964
2969.84+51973516+52698968+53437236+54170648+54811308+55190308+55306044+55368128
2964.70+55549380+55879480+56357648+56916980+57351816+57548628+57682944+57954408
2959.55+58262672+58397168+58374812+58313000+58137364+57729836+57272944+57091660
2954.41+57174184+57148052+56779300+56221716+55673068+55090064+54411284+53821700
2949.27+53565052+53672412+54003056+54403360+54703396+54766920+54669012+54660848
2944.13+54865812+55186896+55497056+55783960+56089944+56425624+56688252+56709488
2938.98+56532280+56568032+57184312+58149948+58804952+58804096+58413532+58080692
2933.84+57961012+57914836+57841444+57884192+58189388+58509796+58379700+57802612
2928.70+57338752+57308100+57371104+57196644+57009632+57098864+57261716+57144888
2923.56+56765748+56345324+55943536+55529744+55175912+54969092+54870444+54750584
2918.41+54477120+53951504+53201588+52429676+51875744+51607540+51433712+51057608
2913.27+50390300+49715068+49410436+49450928+49345136+48700648+47746148+47087600
2908.13+46968088+47018008+46800736+46349380+45935880+45572960+45070924+44389728
2902.99+43654448+43013740+42728668+43041016+43664388+43847728+43350492+42891436
2897.84+43185384+43955660+44387060+44194816+43781280+43564116+43501916+43247692
2892.70+42629776+41924580+41548460+41524836+41535624+41457012+41436668+41495652
2887.56+41531748+41633252+41919736+42172220+42097588+41793508+41562756+41496620
2882.42+41562264+41787932+42082076+42219352+42210024+42299684+42511136+42587724
2877.27+42420732+42170400+41959592+41764432+41582372+41482812+41520476+41693328
2872.13+41881332+41827424+41345708+40565428+39878272+39610712+39708844+39703644
2866.99+39161832+38250592+37555288+37317412+37270516+37257464+37423172+37718612
2861.84+37844456+37772284+37694188+37488320+36895156+36156472+35790376+35812604
2856.70+35777336+35473856+35091828+34851828+34872228+35196144+35636396+35855840
2851.56+35815376+35827336+36026500+36124584+35853664+35311332+34719896+34162660
2846.42+33704148+33485308+33500752+33476748+33150220+32564248+31977848+31581062
2841.27+31358962+31160982+30882184+30595710+30444542+30369504+30163436+29851420
2836.13+29718004+29826976+29892360+29761954+29629388+29626862+29625416+29559558
2830.99+29518866+29465292+29279418+29068648+29005818+28935526+28577254+28044478
2825.85+27788368+28062646+28671482+29198406+29375726+29289772+29230910+29291458
2820.70+29285196+29125460+29019418+29137018+29349842+29429052+29308912+29086822
2815.56+28929750+28967664+29123414+29127870+28852964+28511674+28400128+28561852
2810.42+28784364+28816498+28562936+28203766+28095850+28392546+28814812+28950692
2805.28+28722866+28398324+28210744+28191492+28330940+28636098+29009788+29284592
2800.13+29420386+29480702+29436760+29209600+28884618+28655474+28580384+28594100
2794.99+28665102+28745854+28722866+28596990+28560888+28738750+29030372+29290374
2789.85+29453494+29428816+29159042+28833588+28798564+29188534+29790612+30258576
2784.71+30376368+30193422+29969910+29942934+30125978+30349026+30440328+30318074
2779.56+30028314+29716080+29511882+29485394+29715960+30221002+30765324+31020010
2774.42+30994228+31020976+31285456+31662050+32008708+32305022+32493836+32507578
2769.28+32446810+32480808+32605246+32662402+32595478+32572810+32849796+33482050
2764.14+34198864+34675472+34898304+35102568+35437028+35890620+36408708+36833404
2758.99+36935516+36773952+36783016+37245740+37937428+38517968+38947104+39297688
2753.85+39500480+39536536+39646044+40109552+40927800+41834212+42553912+43017616
2748.71+43367220+43774128+44288568+44904700+45634004+46408996+47039504+47434772
2743.57+47767660+48270492+48970896+49777096+50691684+51713816+52649632+53267748
2738.42+53676072+54303764+55419600+56826656+58146036+59273564+60420676+61776580
2733.28+63256100+64595192+65660904+66626112+67780792+69172056+70562696+71776848
2728.14+72928856+74217216+75671272+77228848+78925888+80871800+83072160+85377832
2723.00+87632880+89830680+92045560+94211296+96165992+97986168+100041120
2718.50+102552888+105336584+108103384+110750752+113255120+115648992+118189472
2714.00+121148056+124372656+127452744+130327496+133293400+136461408+139651504
2709.50+142776768+145967952+149359872+152988560+156799952+160618016+164285584
2705.00+167863520+171495248+175166080+178825040+182597072+186588368+190641216
2700.50+194558160+198414560+202452032+206785136+211297600+215730544+219917952
2696.00+223997888+228264592+232757536+237235232+241587088+245936432+250317360
2691.50+254601136+258806496+263125584+267590400+272023520+276351744+280741184
2687.00+285397312+290338560+295359264+300188352+304746016+309242432+313957696
2682.50+318897536+323741856+328160064+332195264+336268704+340705056+345323008
2678.00+349683456+353674944+357619040+361849408+366437312+371272128+376184608
2673.50+381039136+385862336+390753280+395607392+400152448+404354880+408546112
2669.00+413042080+417812608+422606752+427261888+431814368+436325056+440658048
2664.50+444599904+448260352+452141120+456612096+461517824+466453472+471201568
2660.00+475737664+480086176+484339968+488646368+493072480+497596768+502202656
2655.50+506839840+511387264+515787840+520131072+524548416+529108064+533773216
2651.00+538374720+542750784+546985664+551306368+555704640+559982400+564171648
2646.50+568516928+573002240+577332032+581428480+585555648+589919168+594470720
2642.00+599093696+603715392+608272896+612738688+617162816+621621312+626193216
2637.50+630911680+635622848+640012928+643959680+647716160+651620288+655777664
2633.00+660100160+664446848+668691968+672877120+677252032+681929792+686639296
2628.50+691105792+695489088+700044224+704572608+708659456+712335104+716063616
2624.00+720159424+724548224+729014464+733349760+737389056+741177408+745025664
2619.50+749206080+753668608+758127680+762277440+765947648+769322304+772954432
2615.00+777230656+781860096+786221760+790126208+793877568+797722240+801625344
2610.50+805477312+809209152+812804992+816431424+820337792+824501120+828628544
2606.00+832544512+836264640+839746560+843002368+846346880+850065600+853916288
2601.50+857412864+860491648+863521088+866776576+870214144+873606912+876732736
2597.00+879588224+882474112+885674752+889104448+892471808+895637696+898613632
2592.50+901425344+904167232+906967616+909795712+912522816+915165824+917818496
2588.00+920474176+923175680+926083328+929141056+931969152+934342592+936437568
2583.50+938472000+940507520+942660672+945056896+947557952+949945344+952265152
2579.00+954641664+956967360+959137408+961272512+963419712+965409664+967242304
2574.50+969160640+971159808+972891264+974213376+975409792+976764224+978277696
2570.00+979875072+981572032+983396864+985302144+987179904+988940864+990607616
2565.50+992242688+993753344+994988416+996106112+997499264+999248704+1000995840
2561.00+1002452224+1003703040+1004925696+1006135232+1007265728+1008281280
2557.15+1009214656+1010206912+1011391104+1012679296+1013891264+1015066432
2553.29+1016366144+1017712128+1018822144+1019568320+1020074176+1020575744
2549.43+1021335040+1022491712+1023887168+1025214464+1026332160+1027225536
2545.58+1027850048+1028330112+1029061376+1030256320+1031643648+1032908736
2541.72+1034071360+1035157568+1035964800+1036452160+1036942400+1037650880
2537.86+1038445696+1039221824+1040084928+1041013696+1041790784+1042412864
2534.01+1043191808+1044326656+1045635264+1046816576+1047762880+1048566784
2530.15+1049348800+1050126144+1050830144+1051449344+1052129216+1053047360
2526.29+1054205952+1055410944+1056441344+1057232320+1057877120+1058468608
2522.43+1059011840+1059535808+1060186816+1061048320+1061930048+1062523968
2518.58+1062755456+1062822528+1062982208+1063415552+1064180032+1065136960
2514.72+1066044800+1066838912+1067641984+1068449664+1069063744+1069435520
2510.86+1069797888+1070323264+1070885184+1071291328+1071576832+1071919552
2507.01+1072358464+1072720448+1072833664+1072744064+1072635072+1072611584
2503.15+1072683392+1072902720+1073290560+1073654272+1073741824+1073551808
2499.29+1073264448+1072958336+1072658752+1072531136+1072663296+1072783680
2495.44+1072519744+1071871104+1071180800+1070721216+1070465600+1070147584
2491.58+1069473024+1068411136+1067274688+1066410752+1065874048+1065480320
2487.72+1065016192+1064290688+1063204032+1061883648+1060585856+1059409728
2483.87+1058260096+1057040512+1055722880+1054366080+1053193408+1052391808
2480.01+1051699392+1050518144+1048639488+1046548416+1044797376+1043360768
2476.15+1041813184+1039890368+1037710720+1035576512+1033691264+1032017536
2472.29+1030371584+1028641728+1026850432+1025022528+1023120192+1021110464
2468.44+1019031168+1016960064+1014969536+1013051328+1011065600+1008845888
2464.58+1006393024+1003894528+1001519424+999267968+997040000+994796928
2460.72+992643328+990709696+988966464+987207040+985249408+983090624+980837952
2456.22+978580864+976372032+974192576+971903808+969405632+966900032+964795840
2451.72+963213952+961779840+960067648+958118592+956290304+954709120+953135040
2447.22+951335360+949355776+947370688+945494080+943782144+942235712+940718016
2442.72+939026752+937155648+935372672+933944384+932848704+931826304+930671168
2438.22+929369472+927969216+926452480+924844224+923327360+922081216+921048896
2433.73+920033856+918956480+917865600+916782784+915716544+914729024+913829120
2429.23+912894592+911824448+910676352+909570624+908556608+907610432+906661568
2424.73+905666432+904727616+904031232+903539072+902928448+901974656+900844480
2420.23+899884736+899248896+898817856+898365696+897765440+897100352+896523840
2415.73+895986752+895254272+894251072+893197376+892323328+891624192+890966272
2411.23+890263488+889500608+888720448+888012352+887395264+886758080+885977728
2406.73+885055808+884067584+883091648+882228992+881555392+880957824+880155264
2402.23+878998912+877669504+876485056+875569152+874772288+873831872+872557760
2397.73+870966656+869309760+867867392+866675136+865534912+864309376+863049216
2393.23+861771712+860319552+858571712+856660928+854847104+853244288+851762176
2388.73+850266304+848731392+847232832+845813952+844374464+842735680+840823168
2384.23+838768960+836794304+834978944+833197248+831330560+829451520+827635712
2379.73+825675904+823274752+820537920+817949632+815781760+813815040+811732288
2375.23+809506304+807302528+805183296+802995008+800471936+797515200+794414784
2370.73+791642304+789344704+787214976+784934720+782489536+779996224+777439872
2366.23+774718016+771840832+768996288+766400768+764079424+761842560+759527040
2361.73+757167616+754823168+752418304+749908736+747425472+745089856+742853120
2357.23+740626944+738393792+736118016+733743168+731378368+729291008+727618240
2352.73+726190144+724683712+722907584+720908032+718799232+716521728+713869248
2348.23+710814464+707648384+704663872+701838400+698991296+696108800+693313728
2343.73+690628736+687986560+685409344+683001664+680743488+678427648+675855360
2339.23+673041472+670200448+667545856+665119488+662800768+660446208+658004096
2334.73+655536832+653167424+650960960+648822784+646557760+644088192+641550912
2330.23+639130432+636870400+634704832+632541696+630243072+627694656+625043136
2325.73+622660032+620681024+618764928+616526912+614053248+611739968+609735936
2321.23+607803072+605659392+603255168+600722944+598194944+595726464+593359808
2316.73+591166656+589137536+587093376+584864704+582541760+580371968+578404224
2312.23+576421760+574249536+571925440+569547648+567127616+564646784+562150592
2307.73+559752000+557574592+555653632+553842176+551882624+549632320+547179328
2303.23+544722304+542392704+540193600+538040192+535812704+533438848+530956160
2298.73+528481952+526107968+523858432+521712416+519597632+517377568+514979008
2294.23+512548896+510337440+508383808+506453248+504326848+502014176+499655808
2289.73+497361440+495185504+493124256+491122400+489135616+487118368+484925792
2285.23+482425664+479782144+477381088+475367360+473464128+471360128+469060160
2280.73+466779232+464668544+462707200+460718336+458523072+456182752+453981184
2276.23+452055616+450225216+448298560+446325216+444394464+442411680+440263456
2271.73+438029728+435859200+433762464+431688704+429697600+427887008+426191392
2267.23+424387520+422337472+420157152+418072928+416158816+414274080+412264544
2262.73+410133760+407989376+405909664+403903072+401959744+400049920+398132544
2258.23+396237248+394472032+392847520+391162176+389234816+387196544+385352128
2253.73+383777888+382264736+380630080+378865888+377003840+375045376+373016704
2249.24+370930208+368809504+366830528+365216896+363860576+362345856+360482208
2244.74+358514752+356705504+355040448+353434112+351845408+350151968+348267616
2240.24+346368928+344666720+343052928+341312128+339496192+337759904+336060608
2235.74+334334304+332705696+331240864+329749152+328091040+326414272+324889600
2231.24+323417248+321794656+320022464+318319360+316848640+315498080+314008960
2226.74+312368896+310869376+309623072+308276832+306493728+304477696+302702112
2222.24+301314720+300102144+298831808+297377600+295712480+294003360+292536640
2217.74+291385920+290299296+289020832+287587040+286192800+284869440+283441152
2213.24+281813312+280166496+278738816+277486272+276163808+274701504+273247424
2208.74+271864928+270472960+269085824+267836960+266720512+265534352+264136112
2204.24+262620800+261179232+259884032+258641712+257344672+256005952+254700624
2199.74+253447920+252250256+251158272+250147024+249056496+247824640+246610208
2195.24+245509376+244366640+243064912+241772336+240689568+239742800+238695376
2190.74+237425968+236012960+234661312+233521824+232511920+231394480+230090944
2186.24+228743312+227470272+226285184+225220112+224289536+223350944+222247504
2181.74+221028976+219865616+218842096+217956096+217172064+216359264+215336352
2177.24+214058640+212696704+211482944+210533872+209758560+208921936+207870832
2172.74+206684080+205502624+204341120+203201760+202187312+201312224+200393968
2168.24+199343952+198360560+197640160+197087008+196465664+195655504+194653408
2163.74+193510464+192364624+191376976+190578944+189854832+189047376+188040976
2159.24+186845968+185674528+184772832+184107024+183375520+182411168+181373440
2154.74+180458240+179641744+178851488+178163440+177626288+177058960+176257840
2150.24+175325152+174539872+173948832+173309424+172445648+171459264+170556240
2145.74+169816000+169182688+168558896+167863776+167053712+166124176+165118640
2141.24+164167856+163434208+162902720+162342512+161600944+160830976+160238448
2136.74+159754224+159146192+158351088+157501360+156744768+156160640+155721888
2132.24+155264784+154647248+153956336+153375584+152837040+152054960+150946304
2127.74+149826528+149096624+148821648+148657888+148202384+147398384+146520624
2123.24+145769472+145072192+144329376+143621392+143042240+142528640+142000400
2118.74+141499936+141097520+140777168+140455856+140049808+139521216+138911856
2114.24+138268592+137576608+136850688+136215856+135736896+135291456+134778320
2109.74+134293376+133913976+133492168+132880200+132198216+131663824+131294552
2105.24+130925992+130422752+129743344+128917384+128069224+127380024+126916608
2100.74+126538856+126067424+125522296+125090488+124842304+124609544+124223152
2096.24+123748472+123357192+123044104+122636568+122055680+121406008+120807080
2091.74+120254960+119707632+119218672+118887840+118686376+118422480+117926152
2087.24+117235672+116563160+116096968+115824872+115547408+115100304+114545496
2082.74+114065312+113679336+113243192+112734088+112333432+112138264+111980776
2078.24+111631824+111071960+110473744+110012112+109721168+109471632+109090160
2073.74+108529128+107909400+107385000+107001688+106706800+106447008+106221008
2069.24+106027088+105803896+105481304+105070208+104619832+104121920+103580032
2064.75+103106872+102762224+102407144+101914792+101415312+101097296+100895872
2060.25+100635336+100331032+100109488+99940464+99700632+99388880+99099096
2055.75+98827816+98458608+97925112+97336328+96893912+96657552+96427688+95974904
2050.60+95347112+94807240+94508184+94362776+94214152+93984328+93682048+93362512
2045.46+93075240+92800680+92454080+91956592+91307984+90635856+90159184+89985792
2040.32+89964208+89879688+89727432+89583240+89312384+88748216+88079560+87667960
2035.18+87504464+87243440+86761512+86301624+86055616+85923824+85719224+85358512
2030.03+84887192+84499152+84432072+84650768+84774920+84498160+83911600+83285384
2024.89+82755936+82385864+82283376+82421352+82510248+82282384+81816608+81411744
2019.75+81163864+80856104+80284936+79579624+79101264+79046216+79247784+79344688
2014.60+79094848+78554672+78029944+77793712+77797904+77727856+77410264+77016024
2009.46+76768824+76615712+76345512+75919936+75519216+75305960+75256560+75205312
2004.32+74998240+74614096+74187048+73911888+73901904+74095568+74271392+74198008
1999.18+73809456+73234656+72666040+72227480+71942016+71755440+71592624+71397744
1994.03+71113240+70676016+70134304+69691632+69478256+69345112+69085224+68766928
1988.89+68620328+68682208+68805600+68930616+69091736+69194040+69059928+68689696
1983.75+68286880+68021968+67924760+67950040+68014728+67986872+67762752+67363672
1978.61+66921132+66583060+66436128+66446672+66471076+66374556+66170368+65978832
1973.46+65868716+65792208+65676724+65506924+65298168+65043224+64706940+64248080
1968.32+63669776+63091288+62740280+62779444+63129116+63500768+63650548+63562496
1963.18+63391040+63258548+63145404+62934812+62536092+62005528+61572128+61495052
1958.04+61809248+62226308+62345764+61973832+61224564+60405264+59862928+59836644
1952.89+60282020+60822768+61011360+60706828+60183964+59847648+59856328+60009744
1947.75+59952896+59501732+58840260+58363572+58268908+58281124+57919972+57091288
1942.61+56322504+56250512+56904528+57690152+58103040+58203560+58279904+58343296
1937.47+58210884+57914476+57699912+57696620+57818372+57941464+57988484+57915820
1932.32+57772084+57675004+57636052+57507112+57187116+56769044+56439164+56317016
1927.18+56396696+56555108+56649684+56611240+56379732+55861788+55130552+54558312
1922.04+54516252+54997384+55618052+55798108+55005924+53334884+51873916+51844332
1916.90+53143724+54459804+54945192+54971172+55158720+55477660+55585976+55407888
1911.75+55067748+54667064+54318156+54125432+54077652+54113360+54231236+54395436
1906.61+54461268+54344724+54166872+54126892+54293888+54561116+54778384+54912148
1901.47+55034700+55129088+55019580+54583548+53985628+53600152+53687032+54101420
1896.33+54349356+54072768+53501932+53203176+53389224+53772096+54023172+53956496
1891.18+53365220+52240552+51154852+50875188+51506992+52442464+53131660+53475740
1886.04+53574684+53515340+53388860+53270788+53199640+53242772+53441132+53668636
1880.90+53738952+53647432+53540928+53478784+53401408+53321600+53384108+53683988
1875.76+54080332+54276704+54113360+53733832+53422484+53328424+53313560+52929676
1870.61+51689108+49699992+47986248+47669120+48779664+50369984+51698360+52684836
1865.47+53364364+53611120+53504612+53404208+53507656+53682896+53768200+53773196
1860.33+53739072+53620744+53393736+53185996+53218524+53577852+54068024+54376664
1855.19+54380200+54233428+54145664+54152244+54153220+54142740+54247812+54463704
1850.04+54511496+54134080+53452220+52878148+52737696+52849764+52271972+49869296
1844.90+45911120+42897252+43442996+47064528+50723076+52441856+52706760+52756336
1839.76+53023720+53353892+53560304+53439180+52969144+52552444+52595680+52995336
1834.61+53350352+53458676+53412012+53331712+53007272+51891448+49883032+48048344
1829.47+47846876+49486924+51767752+53399212+53718480+52655972+50956484+50034232
1824.33+50654208+52093692+53223036+53772832+54081796+54305964+54379108+54267188
1819.19+53941632+53427488+52958424+52799940+52953672+53237900+53504612+53642436
1814.04+53570908+53326836+52961712+52403124+51680952+51206460+51468036+52372680
1808.90+53235096+53551896+53538128+53677408+54004028+54171624+54055220+53779656
1803.76+53283220+52421152+51432976+50699840+50118404+49410072+48937452+49404236
1798.62+50716380+51883904+52148856+51703224+51286548+51322576+51253320+49798384
1793.47+46491924+42986104+41863040+43731928+46730536+49116908+50743884+51967064
1788.33+52752436+53128736+53236312+52734536+51336212+49875736+49614492+50553580
1783.19+51573700+51922500+51574428+50758244+50042740+50147352+50988480+51717960
1778.05+51960972+51970592+51706512+51069052+50581320+50259644+48509320+44143028
1772.90+39035900+36885848+39094816+43573088+47453956+49086876+48276088+46438260
1767.76+45938068+47803376+50565140+52223256+52429436+52068848+51448920+49876344
1762.62+47147728+44781676+44890500+47617000+50773088+52371464+52232148+50994692
1757.48+49170648+47757572+48091968+50071700+52030624+52942100+52935524+51573700
1752.33+48059888+43735324+41879880+43624620+46431700+47893048+48350708+49148396
1747.19+50492504+51795028+52666200+52915304+52499456+51851148+51767504+52669000
1742.05+53842052+53598080+50980568+47566212+46472504+48735656+52188676+54568432
1736.91+55275684+53647060+48262960+39555288+31771488+30203418+35826732+44395428
1731.76+50910724+53323308+52873156+52260276+53123864+54902756+56119100+56191456
1726.62+55725892+55498880+55614152+55660384+55433628+55263116+55589392+56392064
1721.48+57155260+57262444+56119464+52940884+47216716+40320652+36116128+37644620
1716.34+42915196+47183680+48878008+50245652+52977912+56015760+58000448+59015108
1711.19+59397112+59186064+59008020+59601836+60427644+60265512+58903676+57234248
1706.05+56228424+56348496+57406020+58954260+60932100+62711024+61509852+54404948
1700.91+43323100+36340576+40231200+52090160+63214104+67580384+64135376+56570112
1695.77+52556948+57859032+69451488+79819272+85740528+88982400+91658480+93988184
1690.62+96063536+98820344+102462720+106119920+109603976+113263408+115573560
1686.12+113518328+106790280+100377432+100911736+109555848+121587696+132361112
1681.62+140113184+145145824+148811680+152540288+156873376+161489792+165692880
1677.12+168270880+168045232+166039056+166289488+172117632+181595536+189633520
1672.62+193854160+196024624+198448896+200910656+202289600+203738640+208014096
1668.12+215697744+224235808+231127888+236244432+240736960+244892320+247857824
1663.62+249413072+251289056+255837616+263218848+271178208+277849600+283258368
1659.12+288098880+292646944+297097024+301523840+305206752+306937376+305693824
1654.62+300486272+291352000+282559104+282631712+295514848+314125632+328869888
1650.12+336433888+338557344+337841440+335869440+333349216+330944960+330344928
1645.63+333866944+341401984+349128960+353469792+354666496+355131360+355906112
1641.13+356434880+356554912+356383232+355182560+352315360+348206048+342785280
1636.63+334881760+325428064+319311520+320147392+324601408+326564352+324050624
1632.13+319061568+313594368+308003232+301950432+294919968+286397952+276860320
1627.63+267950144+260836784+254935760+248569472+240379424+230452528+220719344
1623.13+213540496+209213904+205811328+201636176+196618304+191486288+186342544
1618.63+179841952+170127888+157970784+148685520+147565856+152624144+157057440
1614.13+157578240+155784880+153769744+151764448+149583296+147590496+145971520
1609.63+144635760+143645616+142852208+141831616+140663856+139872400+139468672
1605.13+138986384+138308384+137633424+137027328+136581840+136456704+136429520
1600.63+136110672+135615888+135288544+135036896+134666640+134376256+134249616
1596.13+133938344+133390424+133118128+133357960+133762896+134138560+134681360
1591.63+135434672+136144096+136582096+136688560+136719952+137330528+138906256
1587.13+140897984+142495904+143625216+144582800+145311952+145801248+146465072
1582.63+147524320+148744704+150010064+151306560+152391200+153292928+154155888
1578.13+153617360+149273456+141718896+136733040+139932464+149249664+157832112
1573.63+162326160+164241392+165769200+166676272+165380528+161955552+159083984
1569.13+159589696+163369312+167916304+171172928+172567760+172396496+171569824
1564.63+171284096+171990880+173049968+173313824+171117200+164555392+153701696
1560.13+142297632+135025488+133160728+135703232+142581280+152375072+160111680
1555.63+161596320+158062096+154913296+156014896+160149360+163637168+164336208
1551.13+162607536+160250144+158993680+159317104+160408032+161085872+160405216
1546.63+157695344+153085424+148280368+145435472+144169808+141383152+135404720
1542.13+128480160+123277568+118508728+111734712+105387240+105491424+113217696
1537.63+122614368+128060256+128753488+126412576+122186600+116763904+112057448
1533.13+110561776+112475008+115272232+116780384+116916120+116169144+114385416
1528.63+111887288+109970368+109018864+107778416+105641032+104010928+104171536
1524.13+104997176+103979680+99741776+93306824+87918008+87278384+92325848
1519.63+99748896+104733976+104994800+102296256+100529784+101808296+104891520
1515.13+107656824+109162968+109029648+107121864+104552808+103135848+103090880
1510.63+102932480+101719904+99506448+95804752+89689832+81796720+75157888
1506.13+73498408+78334920+87424136+96390216+102072728+104227544+104574696
1501.63+104802240+105212392+104848888+103125608+101262664+100908600+101253296
1497.13+99988360+97651992+98024048+102733368+108650272+112482416+114151232
1492.63+114741760+114163792+112252224+110478272+110922712+113876008+117485696
1488.13+119931264+121364896+123401624+126878416+130910664+134385120+137253136
1483.63+139895312+142233920+144097632+145808512+147878096+150491824+153560992
1479.13+156868608+159842496+161608784+161966480+162224000+164119264+167446304
1474.63+169928512+170095584+169280336+170282288+174630656+181577472+189070464
1470.13+195163216+199133920+201643520+203662816+205363232+206176288+205576816
1465.63+203962560+203198480+205360576+209986752+214187952+216362832+217639664
1461.14+219059120+219744256+218866192+216816752+213351136+207588128+201518448
1456.64+200523584+207185280+217322624+225330896+229501408+231064336+231349968
1452.14+231019680+230684928+230855712+231307328+231145856+229828784+228035504
1447.64+227254416+228262704+230267536+231814368+232191840+231723216+231005568
1443.14+230283776+229582224+228976336+228375280+227438592+226067632+224327520
1438.64+221386624+215767936+207995024+201983408+201342160+204541184+206939008
1434.14+206304976+203722464+200797280+197993520+195109824+191881664+188351712
1429.64+185267648+183358736+182031200+180021120+177251632+174570704+171993840
1425.14+168854304+165362240+162405968+160181360+158270160+156218640+152917472
1420.64+146947120+139100992+133273480+132578288+135451824+138148560+139151488
1416.14+139196656+138952800+138423744+137737664+137140416+136559856+135899840
1411.64+135353040+134981184+134523984+133947864+133653392+133885688+134332080
1407.14+134435136+133792440+132368848+130772200+130070032+130710520+131830992
1402.64+132256144+131782080+130790576+129112416+126364936+123189728+120970808
1398.14+120155408+119807672+118798688+116583040+113232152+109715904+107715680
1393.64+107995560+109288784+109707632+108707520+107083432+105639400+104314168
1389.14+102297120+98926544+94878768+92126440+91880952+93103576+93986072
1384.64+94033936+93794688+93491936+92941000+92202216+91473048+90760264+90107552
1379.50+89711664+89619840+89714400+89884032+89864056+89245384+88045104+86901528
1374.35+86447432+86865968+88087248+89876472+91730272+93168088+94043392+94352456
1369.21+94121872+93737000+93775416+94218872+94432432+94059072+93291528+92251424
1364.07+90881440+89488440+88643416+88482448+88719568+89227776+90004544+90753304
1358.93+91092032+91034912+90846664+90580616+90143544+89642056+89321576+89217968
1353.78+89120096+88838272+88337728+87660520+86895832+86230016+85860040+85790696
1348.64+85842832+85903768+85997776+86106144+86133520+86117536+86244392+86544800
1343.50+86777368+86671920+86120280+85148408+83949216+82921160+82447928+82592096
1338.36+83112224+83670592+83946608+83769192+83337704+83119888+83352296+83771424
1333.21+83962336+83831296+83584488+83382848+83211792+83080944+83136088+83442720
1328.07+83796296+83925952+83804952+83608856+83470808+83453608+83599584+83797896
1322.93+83809768+83616032+83452624+83334984+82958488+82293512+81803632+81767544
1317.79+81863336+81716744+81413712+81164368+80897248+80492936+80109336+80014496
1312.64+80291488+80791384+81225160+81317088+81031424+80634736+80448720+80601144
1307.50+80998312+81391232+81467968+81101344+80554952+80282600+80480216+80937888
1302.36+81323752+81491456+81489720+81397784+81286328+81313016+81654832+82220568
1297.22+82623008+82633512+82496400+82575160+82872184+83179880+83494560+83957000
1292.07+84543096+85129464+85722696+86360224+86929904+87307880+87545248+87759200
1286.93+87998480+88308832+88773272+89382856+90010248+90570056+91110776+91710768
1281.79+92349336+92937648+93485472+94155816+95036160+95941800+96653184+97283256
1276.65+98138696+99281008+100539256+101822400+103092008+104171536+104985176
1272.15+105828280+107048624+108598280+110182240+111644376+113007888+114364688
1267.65+115854920+117531360+119202168+120678520+122097808+123723480+125528992
1263.15+127284056+128974064+130854424+133147680+135854112+138834768+141981024
1258.65+145263312+148592064+151738592+154543136+157126224+159735808+162529008
1254.15+165663360+169351488+173532032+177725248+181509264+185001024+188616800
1249.65+192512944+196466432+200233408+203839296+207530176+211510528+215815824
1245.15+220431104+225369424+230553328+235766176+240865216+245949184+251219616
1240.65+256786640+262630384+268613632+274539584+280338560+286164544+292180768
1236.15+298316384+304371808+310312256+316343456+322697824+329392768+336194688
1231.65+342820960+349121760+355081856+360794720+366504448+372494400+378757984
1227.15+384942400+390750272+396278368+401856800+407684608+413674656+419567840
1222.65+425182432+430591776+435981376+441324096+446347808+450850720+454877824
1218.15+458587168+462113088+465555936+468957824+472258496+475320096+477985152
1213.65+480207264+482187008+484198016+486132960+487504032+488079488+488219616
1209.15+488378624+488613792+488739776+488571808+487831680+486281856+484108800
1204.65+481752384+479257760+476261696+472677792+468891872+465162848+461299136
1200.15+457054720+452464640+447669824+442658400+437277856+431423328+425247456
1195.65+419178016+413546496+408189408+402650400+396747840+390671584+384589504
1191.15+378494816+372426336+366504640+360763008+355144128+349610336+344105440
1186.65+338545216+332948544+327433856+322067264+316928576+312226336+308065664
1182.15+304210688+300382848+296663392+293242176+289944512+286433856+282782368
1177.65+279436096+276606496+274040896+271451328+268903072+266619072+264604416
1173.15+262663680+260717536+258856640+257132320+255498912+253956608+252543664
1168.65+251196608+249837312+248565456+247547504+246752800+245991200+245184384
1164.15+244419216+243773120+243232048+242767520+242380528+242080848+241870656
1159.65+241756000+241686352+241484112+240938064+240090192+239347568+239154544
1155.15+239576208+240310496+241011568+241500064+241808368+242207696+243043200
1150.65+244402448+246052400+247772512+249573744+251540768+253653008+255840720
1146.15+258093200+260470512+263052864+265871376+268889120+272091744+275495744
1141.65+279019808+282535328+286142784+290141056+294580992+299128480+303535232
1137.15+307956000+312629664+317532928+322575456+327891424+333704480+340004128
1132.65+346504032+352907168+359215840+365804672+373110144+381157664+389462304
1128.15+397529120+405392448+413526432+422244160+431369952+440555296+449750208
1123.65+459204416+469064704+479165248+489282176+499487968+510092384+521192608
1119.15+532407328+543224640+553584448+563918464+574565312+585393792+596143488
1114.65+606896448+617902656+629058752+639883584+650048256+659689984+669201664
1110.15+678881920+688799808+698779904+708501056+717726272+726465792+734860288
1105.65+742962368+750735808+758235008+765690240+773277888+780760640+787564608
1101.15+793502464+799208896+805384320+811798464+817653312+822777216+827731072
1096.65+832854592+838013376+843175040+848396352+853313344+857457792+861102272
1092.16+865044096+869537344+874000768+877866176+881235648+884562688+887974720
1087.66+891193536+894025728+896624000+899169280+901642752+904051392+906438528
1083.16+908461120+909515968+909563328+909308352+909297920+909330496+908860160
1078.66+907454592+904844224+901045312+896425216+891338880+885955648+880615296
1074.16+875718848+870954880+865236224+857833344+849141952+840092928+831157888
1069.66+822063296+812231168+801403136+789832192+777830464+765345536+752281856
1065.16+738954816+725795840+712797312+699607936+686009280+672038976+657880448
1060.66+643824768+630102080+616627008+603125376+589606016+576471936+564032768
1056.16+552057024+540020736+527791648+515776928+504268800+493001216+481714432
1051.66+470762272+460640736+451146240+441564256+431583936+421573920+412042016
1047.16+403152512+394711680+386436704+378289376+370518624+363242304+356129408
1042.66+348776672+341305504+334312384+328215104+322865664+317819712+312793888
1038.16+307746368+302650176+297452672+292261696+287261792+282397920+277476192
1033.66+272609984+268167312+264223600+260560384+257194672+254358640+251935472
1029.16+249473136+246787712+244052560+241356336+238616336+235873552+233345904
1024.66+231261776+229771952+228836576+228129552+227264672+226150688+224995904
1020.16+224050448+223456048+223176976+223020400+222885968+222885072+223055440
1015.66+223232704+223445440+224046848+225193792+226609904+228112128+229872848
1011.16+231946048+234066400+236170576+238664880+241925568+245856144+250114000
1006.66+254588320+259509680+265146048+271496448+278401248+285880256+294139104
1002.16+303223552+312921728+323006688+333352160+343861728+354577280+365742944
997.66+377533696+389809280+402325024+415056128+428151904+441630176+455217472
993.16+468529312+481364800+493617376+504809088+514110240+521118112+526189376
988.66+529642720+531071136+529834912+525766368+519094400+510158176+499487808
984.16+487753184+475439520+462717088+449511456+435584576+420939936+406278880
979.66+392569120+379994336+367846144+355546176+343247424+331363264+320037760
975.16+309249600+299060768+289553088+280673152+272291296+264419888+257224368
970.66+250701968+244512304+238334448+232273184+226677952+221709600+217298544
966.16+213333312+209733920+206491552+203649920+201059600+198318880+195278896
961.66+192416368+190356768+189132256+188150912+186796048+184946736+183086000
957.16+181882352+181508064+181474432+181233136+180687360+179976336+179134816
952.66+178234784+177568064+177390656+177576240+177747168+177712416+177605024
948.16+177558864+177466384+177211712+176950064+176921136+177124320+177390656
943.66+177591808+177590496+177253088+176708784+176357760+176481952+177018384
939.16+177706176+178254624+178467520+178374896+178130736+177799824+177512048
934.66+177646784+178429920+179544512+180596960+181655440+182805888+183583376
930.16+183453296+182630736+181928896+181949168+182643376+183503504+184055136
925.66+184322128+184734688+185485600+186230016+186597984+186705616+186948880
921.16+187504704+188217152+188848832+189338528+189841504+190505328+191231488
916.66+191822992+192329360+192992128+193802128+194378832+194456272+194340640
912.16+194671712+195727760+197092640+198075680+198400544+198394112+198532784
907.67+198925616+199309344+199499472+199690688+200249280+201256304+202379040
903.17+203194032+203553744+203621552+203605248+203559632+203485968+203547712
898.67+203960320+204635168+205215680+205573136+205980672+206622240+207218448
894.17+207366544+207036144+206542992+206168400+205945792+205734944+205468192
889.67+205315744+205516176+206024736+206451424+206404560+205805568+204908224
885.17+204110816+203719728+203761504+203982144+204047984+203792240+203299904
880.67+202758432+202194800+201475632+200619632+199886720+199426320+199115040
876.17+198855088+198729120+198695424+198488992+197966128+197261584+196557968
871.67+195976048+195628272+195497424+195358832+195050832+194655616+194249376
867.17+193750496+193194608+192838832+192770880+192623360+191944464+190845248
862.67+190072368+190245824+191026608+191328112+190558192+189311152+188603648
858.17+188798352+189635328+190800336+191869232+192049776+190816400+188803712
853.67+187439664+187608480+188980704+190548256+191481040+191621984+191487440
849.17+191633728+192042320+192548848+193414608+194392320+193928176+191068912
844.67+187632688+186274416+186997616+187897584+188498016+189869968+192147104
840.17+194362736+196057584+197152224+197139904+195853536+194193120+193293696
835.67+193539968+194477824+195119120+194644752+193283104+191936896+190772160
831.17+189108016+186725680+184427808+183227760+183355760+183857904+183232464
826.67+181128656+179093168+178676192+179273712+179108480+177827584+176679104
822.17+176402096+176388112+175905072+175106240+174527584+174256848+173907424
817.67+173133328+171798704+169782160+167141952+164645312+163426864+163692688
813.17+164289440+163981456+162607536+160706224+158834336+157684560+157894912
808.67+159065744+159737744+158999952+157388512+155781680+154389312+153386480
804.17+153398912+154594320+156160384+157256416+157666080+157404272+156707280
##END=
